Created as New Dataset,Sample 845 By YargerLab Date Saturday, April 18 2026
cm-1,A
4000.00,0.0121
3999.00,0.0121
3998.00,0.0121
3997.00,0.0121
3996.00,0.0121
3995.00,0.0121
3994.00,0.0121
3993.00,0.0121
3992.00,0.0121
3991.00,0.0121
3990.00,0.0121
3989.00,0.0121
3988.00,0.0121
3987.00,0.0121
3986.00,0.0121
3985.00,0.0121
3984.00,0.0121
3983.00,0.0121
3982.00,0.0121
3981.00,0.0121
3980.00,0.0121
3979.00,0.0121
3978.00,0.0120
3977.00,0.0120
3976.00,0.0120
3975.00,0.0120
3974.00,0.0120
3973.00,0.0120
3972.00,0.0120
3971.00,0.0120
3970.00,0.0120
3969.00,0.0120
3968.00,0.0120
3967.00,0.0121
3966.00,0.0121
3965.00,0.0121
3964.00,0.0121
3963.00,0.0121
3962.00,0.0120
3961.00,0.0120
3960.00,0.0120
3959.00,0.0120
3958.00,0.0120
3957.00,0.0120
3956.00,0.0120
3955.00,0.0120
3954.00,0.0120
3953.00,0.0120
3952.00,0.0120
3951.00,0.0120
3950.00,0.0120
3949.00,0.0120
3948.00,0.0120
3947.00,0.0120
3946.00,0.0120
3945.00,0.0120
3944.00,0.0119
3943.00,0.0119
3942.00,0.0119
3941.00,0.0119
3940.00,0.0119
3939.00,0.0119
3938.00,0.0119
3937.00,0.0120
3936.00,0.0120
3935.00,0.0120
3934.00,0.0120
3933.00,0.0120
3932.00,0.0120
3931.00,0.0120
3930.00,0.0120
3929.00,0.0120
3928.00,0.0120
3927.00,0.0119
3926.00,0.0119
3925.00,0.0119
3924.00,0.0119
3923.00,0.0119
3922.00,0.0119
3921.00,0.0119
3920.00,0.0119
3919.00,0.0118
3918.00,0.0118
3917.00,0.0118
3916.00,0.0118
3915.00,0.0118
3914.00,0.0118
3913.00,0.0118
3912.00,0.0118
3911.00,0.0118
3910.00,0.0118
3909.00,0.0118
3908.00,0.0118
3907.00,0.0118
3906.00,0.0118
3905.00,0.0117
3904.00,0.0117
3903.00,0.0117
3902.00,0.0117
3901.00,0.0117
3900.00,0.0117
3899.00,0.0117
3898.00,0.0117
3897.00,0.0117
3896.00,0.0117
3895.00,0.0117
3894.00,0.0117
3893.00,0.0117
3892.00,0.0117
3891.00,0.0117
3890.00,0.0117
3889.00,0.0117
3888.00,0.0117
3887.00,0.0118
3886.00,0.0118
3885.00,0.0118
3884.00,0.0118
3883.00,0.0118
3882.00,0.0118
3881.00,0.0117
3880.00,0.0117
3879.00,0.0117
3878.00,0.0117
3877.00,0.0117
3876.00,0.0118
3875.00,0.0118
3874.00,0.0118
3873.00,0.0118
3872.00,0.0118
3871.00,0.0118
3870.00,0.0118
3869.00,0.0117
3868.00,0.0117
3867.00,0.0117
3866.00,0.0117
3865.00,0.0117
3864.00,0.0117
3863.00,0.0118
3862.00,0.0118
3861.00,0.0118
3860.00,0.0118
3859.00,0.0117
3858.00,0.0117
3857.00,0.0117
3856.00,0.0117
3855.00,0.0117
3854.00,0.0117
3853.00,0.0117
3852.00,0.0117
3851.00,0.0117
3850.00,0.0117
3849.00,0.0117
3848.00,0.0118
3847.00,0.0118
3846.00,0.0118
3845.00,0.0118
3844.00,0.0118
3843.00,0.0118
3842.00,0.0118
3841.00,0.0118
3840.00,0.0117
3839.00,0.0117
3838.00,0.0117
3837.00,0.0117
3836.00,0.0117
3835.00,0.0117
3834.00,0.0117
3833.00,0.0117
3832.00,0.0117
3831.00,0.0117
3830.00,0.0117
3829.00,0.0117
3828.00,0.0117
3827.00,0.0116
3826.00,0.0116
3825.00,0.0116
3824.00,0.0116
3823.00,0.0116
3822.00,0.0116
3821.00,0.0115
3820.00,0.0115
3819.00,0.0115
3818.00,0.0114
3817.00,0.0114
3816.00,0.0114
3815.00,0.0114
3814.00,0.0114
3813.00,0.0114
3812.00,0.0114
3811.00,0.0114
3810.00,0.0114
3809.00,0.0114
3808.00,0.0115
3807.00,0.0115
3806.00,0.0115
3805.00,0.0114
3804.00,0.0114
3803.00,0.0114
3802.00,0.0113
3801.00,0.0113
3800.00,0.0113
3799.00,0.0113
3798.00,0.0113
3797.00,0.0113
3796.00,0.0113
3795.00,0.0113
3794.00,0.0113
3793.00,0.0113
3792.00,0.0113
3791.00,0.0114
3790.00,0.0114
3789.00,0.0114
3788.00,0.0114
3787.00,0.0114
3786.00,0.0114
3785.00,0.0114
3784.00,0.0113
3783.00,0.0113
3782.00,0.0113
3781.00,0.0113
3780.00,0.0113
3779.00,0.0113
3778.00,0.0113
3777.00,0.0113
3776.00,0.0113
3775.00,0.0113
3774.00,0.0113
3773.00,0.0113
3772.00,0.0113
3771.00,0.0113
3770.00,0.0113
3769.00,0.0113
3768.00,0.0113
3767.00,0.0113
3766.00,0.0113
3765.00,0.0113
3764.00,0.0113
3763.00,0.0113
3762.00,0.0113
3761.00,0.0113
3760.00,0.0113
3759.00,0.0113
3758.00,0.0113
3757.00,0.0112
3756.00,0.0112
3755.00,0.0112
3754.00,0.0111
3753.00,0.0111
3752.00,0.0111
3751.00,0.0110
3750.00,0.0110
3749.00,0.0110
3748.00,0.0109
3747.00,0.0109
3746.00,0.0108
3745.00,0.0107
3744.00,0.0106
3743.00,0.0106
3742.00,0.0105
3741.00,0.0104
3740.00,0.0103
3739.00,0.0103
3738.00,0.0102
3737.00,0.0102
3736.00,0.0101
3735.00,0.0101
3734.00,0.0101
3733.00,0.0101
3732.00,0.0101
3731.00,0.0101
3730.00,0.0101
3729.00,0.0102
3728.00,0.0102
3727.00,0.0103
3726.00,0.0104
3725.00,0.0104
3724.00,0.0105
3723.00,0.0105
3722.00,0.0105
3721.00,0.0105
3720.00,0.0106
3719.00,0.0106
3718.00,0.0107
3717.00,0.0108
3716.00,0.0109
3715.00,0.0109
3714.00,0.0109
3713.00,0.0108
3712.00,0.0107
3711.00,0.0106
3710.00,0.0105
3709.00,0.0105
3708.00,0.0105
3707.00,0.0105
3706.00,0.0105
3705.00,0.0105
3704.00,0.0105
3703.00,0.0105
3702.00,0.0104
3701.00,0.0104
3700.00,0.0104
3699.00,0.0105
3698.00,0.0105
3697.00,0.0105
3696.00,0.0105
3695.00,0.0105
3694.00,0.0104
3693.00,0.0104
3692.00,0.0104
3691.00,0.0104
3690.00,0.0104
3689.00,0.0104
3688.00,0.0104
3687.00,0.0105
3686.00,0.0105
3685.00,0.0105
3684.00,0.0106
3683.00,0.0106
3682.00,0.0106
3681.00,0.0107
3680.00,0.0106
3679.00,0.0106
3678.00,0.0106
3677.00,0.0106
3676.00,0.0106
3675.00,0.0106
3674.00,0.0107
3673.00,0.0107
3672.00,0.0107
3671.00,0.0107
3670.00,0.0107
3669.00,0.0107
3668.00,0.0107
3667.00,0.0107
3666.00,0.0107
3665.00,0.0107
3664.00,0.0107
3663.00,0.0108
3662.00,0.0108
3661.00,0.0108
3660.00,0.0108
3659.00,0.0108
3658.00,0.0108
3657.00,0.0108
3656.00,0.0108
3655.00,0.0107
3654.00,0.0107
3653.00,0.0107
3652.00,0.0107
3651.00,0.0106
3650.00,0.0106
3649.00,0.0106
3648.00,0.0105
3647.00,0.0105
3646.00,0.0104
3645.00,0.0104
3644.00,0.0104
3643.00,0.0104
3642.00,0.0104
3641.00,0.0104
3640.00,0.0103
3639.00,0.0103
3638.00,0.0103
3637.00,0.0102
3636.00,0.0102
3635.00,0.0101
3634.00,0.0101
3633.00,0.0101
3632.00,0.0101
3631.00,0.0101
3630.00,0.0101
3629.00,0.0101
3628.00,0.0101
3627.00,0.0101
3626.00,0.0101
3625.00,0.0101
3624.00,0.0102
3623.00,0.0102
3622.00,0.0103
3621.00,0.0103
3620.00,0.0104
3619.00,0.0104
3618.00,0.0104
3617.00,0.0104
3616.00,0.0105
3615.00,0.0106
3614.00,0.0106
3613.00,0.0106
3612.00,0.0106
3611.00,0.0106
3610.00,0.0105
3609.00,0.0105
3608.00,0.0104
3607.00,0.0103
3606.00,0.0103
3605.00,0.0103
3604.00,0.0102
3603.00,0.0102
3602.00,0.0102
3601.00,0.0102
3600.00,0.0102
3599.00,0.0102
3598.00,0.0102
3597.00,0.0102
3596.00,0.0102
3595.00,0.0101
3594.00,0.0101
3593.00,0.0101
3592.00,0.0101
3591.00,0.0102
3590.00,0.0102
3589.00,0.0102
3588.00,0.0102
3587.00,0.0102
3586.00,0.0102
3585.00,0.0102
3584.00,0.0103
3583.00,0.0103
3582.00,0.0103
3581.00,0.0103
3580.00,0.0103
3579.00,0.0103
3578.00,0.0103
3577.00,0.0104
3576.00,0.0104
3575.00,0.0104
3574.00,0.0104
3573.00,0.0104
3572.00,0.0104
3571.00,0.0104
3570.00,0.0104
3569.00,0.0104
3568.00,0.0104
3567.00,0.0104
3566.00,0.0104
3565.00,0.0104
3564.00,0.0104
3563.00,0.0105
3562.00,0.0105
3561.00,0.0105
3560.00,0.0105
3559.00,0.0105
3558.00,0.0105
3557.00,0.0105
3556.00,0.0105
3555.00,0.0105
3554.00,0.0105
3553.00,0.0106
3552.00,0.0106
3551.00,0.0106
3550.00,0.0106
3549.00,0.0106
3548.00,0.0106
3547.00,0.0106
3546.00,0.0106
3545.00,0.0106
3544.00,0.0106
3543.00,0.0106
3542.00,0.0106
3541.00,0.0106
3540.00,0.0106
3539.00,0.0106
3538.00,0.0106
3537.00,0.0106
3536.00,0.0106
3535.00,0.0106
3534.00,0.0106
3533.00,0.0106
3532.00,0.0106
3531.00,0.0106
3530.00,0.0106
3529.00,0.0106
3528.00,0.0106
3527.00,0.0106
3526.00,0.0106
3525.00,0.0106
3524.00,0.0106
3523.00,0.0106
3522.00,0.0106
3521.00,0.0106
3520.00,0.0106
3519.00,0.0106
3518.00,0.0107
3517.00,0.0107
3516.00,0.0106
3515.00,0.0106
3514.00,0.0106
3513.00,0.0106
3512.00,0.0106
3511.00,0.0107
3510.00,0.0107
3509.00,0.0107
3508.00,0.0107
3507.00,0.0107
3506.00,0.0107
3505.00,0.0107
3504.00,0.0106
3503.00,0.0106
3502.00,0.0106
3501.00,0.0107
3500.00,0.0107
3499.00,0.0107
3498.00,0.0107
3497.00,0.0107
3496.00,0.0107
3495.00,0.0107
3494.00,0.0107
3493.00,0.0108
3492.00,0.0108
3491.00,0.0108
3490.00,0.0108
3489.00,0.0108
3488.00,0.0108
3487.00,0.0108
3486.00,0.0108
3485.00,0.0108
3484.00,0.0109
3483.00,0.0109
3482.00,0.0109
3481.00,0.0109
3480.00,0.0109
3479.00,0.0109
3478.00,0.0109
3477.00,0.0110
3476.00,0.0110
3475.00,0.0110
3474.00,0.0110
3473.00,0.0110
3472.00,0.0110
3471.00,0.0110
3470.00,0.0110
3469.00,0.0110
3468.00,0.0110
3467.00,0.0111
3466.00,0.0111
3465.00,0.0112
3464.00,0.0112
3463.00,0.0112
3462.00,0.0112
3461.00,0.0112
3460.00,0.0112
3459.00,0.0112
3458.00,0.0113
3457.00,0.0113
3456.00,0.0113
3455.00,0.0113
3454.00,0.0113
3453.00,0.0113
3452.00,0.0113
3451.00,0.0113
3450.00,0.0113
3449.00,0.0113
3448.00,0.0114
3447.00,0.0114
3446.00,0.0114
3445.00,0.0115
3444.00,0.0115
3443.00,0.0115
3442.00,0.0115
3441.00,0.0115
3440.00,0.0115
3439.00,0.0115
3438.00,0.0115
3437.00,0.0115
3436.00,0.0115
3435.00,0.0115
3434.00,0.0115
3433.00,0.0116
3432.00,0.0116
3431.00,0.0117
3430.00,0.0117
3429.00,0.0118
3428.00,0.0118
3427.00,0.0119
3426.00,0.0120
3425.00,0.0121
3424.00,0.0121
3423.00,0.0122
3422.00,0.0123
3421.00,0.0123
3420.00,0.0124
3419.00,0.0124
3418.00,0.0125
3417.00,0.0125
3416.00,0.0125
3415.00,0.0125
3414.00,0.0125
3413.00,0.0125
3412.00,0.0125
3411.00,0.0125
3410.00,0.0125
3409.00,0.0126
3408.00,0.0127
3407.00,0.0127
3406.00,0.0127
3405.00,0.0126
3404.00,0.0125
3403.00,0.0123
3402.00,0.0121
3401.00,0.0121
3400.00,0.0122
3399.00,0.0123
3398.00,0.0124
3397.00,0.0125
3396.00,0.0124
3395.00,0.0123
3394.00,0.0122
3393.00,0.0121
3392.00,0.0121
3391.00,0.0122
3390.00,0.0122
3389.00,0.0123
3388.00,0.0124
3387.00,0.0124
3386.00,0.0124
3385.00,0.0124
3384.00,0.0124
3383.00,0.0124
3382.00,0.0124
3381.00,0.0124
3380.00,0.0124
3379.00,0.0124
3378.00,0.0124
3377.00,0.0124
3376.00,0.0124
3375.00,0.0124
3374.00,0.0124
3373.00,0.0124
3372.00,0.0124
3371.00,0.0124
3370.00,0.0124
3369.00,0.0124
3368.00,0.0124
3367.00,0.0124
3366.00,0.0125
3365.00,0.0125
3364.00,0.0126
3363.00,0.0126
3362.00,0.0126
3361.00,0.0127
3360.00,0.0127
3359.00,0.0127
3358.00,0.0127
3357.00,0.0128
3356.00,0.0128
3355.00,0.0128
3354.00,0.0128
3353.00,0.0128
3352.00,0.0128
3351.00,0.0129
3350.00,0.0129
3349.00,0.0130
3348.00,0.0130
3347.00,0.0131
3346.00,0.0131
3345.00,0.0131
3344.00,0.0132
3343.00,0.0132
3342.00,0.0132
3341.00,0.0132
3340.00,0.0132
3339.00,0.0133
3338.00,0.0133
3337.00,0.0133
3336.00,0.0134
3335.00,0.0135
3334.00,0.0135
3333.00,0.0136
3332.00,0.0136
3331.00,0.0136
3330.00,0.0137
3329.00,0.0137
3328.00,0.0137
3327.00,0.0138
3326.00,0.0138
3325.00,0.0138
3324.00,0.0139
3323.00,0.0139
3322.00,0.0140
3321.00,0.0140
3320.00,0.0141
3319.00,0.0142
3318.00,0.0143
3317.00,0.0143
3316.00,0.0144
3315.00,0.0145
3314.00,0.0146
3313.00,0.0147
3312.00,0.0147
3311.00,0.0148
3310.00,0.0148
3309.00,0.0149
3308.00,0.0150
3307.00,0.0151
3306.00,0.0152
3305.00,0.0154
3304.00,0.0156
3303.00,0.0158
3302.00,0.0160
3301.00,0.0161
3300.00,0.0162
3299.00,0.0163
3298.00,0.0164
3297.00,0.0165
3296.00,0.0166
3295.00,0.0167
3294.00,0.0168
3293.00,0.0169
3292.00,0.0171
3291.00,0.0172
3290.00,0.0174
3289.00,0.0176
3288.00,0.0177
3287.00,0.0178
3286.00,0.0179
3285.00,0.0180
3284.00,0.0181
3283.00,0.0182
3282.00,0.0183
3281.00,0.0183
3280.00,0.0184
3279.00,0.0185
3278.00,0.0185
3277.00,0.0185
3276.00,0.0186
3275.00,0.0186
3274.00,0.0186
3273.00,0.0186
3272.00,0.0186
3271.00,0.0187
3270.00,0.0188
3269.00,0.0190
3268.00,0.0193
3267.00,0.0194
3266.00,0.0195
3265.00,0.0196
3264.00,0.0197
3263.00,0.0197
3262.00,0.0198
3261.00,0.0198
3260.00,0.0199
3259.00,0.0199
3258.00,0.0199
3257.00,0.0199
3256.00,0.0199
3255.00,0.0200
3254.00,0.0201
3253.00,0.0202
3252.00,0.0203
3251.00,0.0204
3250.00,0.0204
3249.00,0.0204
3248.00,0.0204
3247.00,0.0205
3246.00,0.0206
3245.00,0.0208
3244.00,0.0209
3243.00,0.0211
3242.00,0.0212
3241.00,0.0213
3240.00,0.0214
3239.00,0.0215
3238.00,0.0216
3237.00,0.0216
3236.00,0.0217
3235.00,0.0217
3234.00,0.0217
3233.00,0.0219
3232.00,0.0221
3231.00,0.0224
3230.00,0.0227
3229.00,0.0229
3228.00,0.0230
3227.00,0.0232
3226.00,0.0233
3225.00,0.0235
3224.00,0.0237
3223.00,0.0238
3222.00,0.0240
3221.00,0.0242
3220.00,0.0243
3219.00,0.0245
3218.00,0.0246
3217.00,0.0248
3216.00,0.0250
3215.00,0.0251
3214.00,0.0253
3213.00,0.0255
3212.00,0.0257
3211.00,0.0260
3210.00,0.0261
3209.00,0.0263
3208.00,0.0265
3207.00,0.0267
3206.00,0.0269
3205.00,0.0271
3204.00,0.0273
3203.00,0.0275
3202.00,0.0277
3201.00,0.0279
3200.00,0.0282
3199.00,0.0284
3198.00,0.0286
3197.00,0.0288
3196.00,0.0290
3195.00,0.0292
3194.00,0.0294
3193.00,0.0296
3192.00,0.0298
3191.00,0.0300
3190.00,0.0302
3189.00,0.0305
3188.00,0.0307
3187.00,0.0310
3186.00,0.0312
3185.00,0.0314
3184.00,0.0316
3183.00,0.0319
3182.00,0.0321
3181.00,0.0323
3180.00,0.0326
3179.00,0.0329
3178.00,0.0331
3177.00,0.0334
3176.00,0.0337
3175.00,0.0340
3174.00,0.0342
3173.00,0.0345
3172.00,0.0348
3171.00,0.0351
3170.00,0.0353
3169.00,0.0356
3168.00,0.0359
3167.00,0.0362
3166.00,0.0365
3165.00,0.0368
3164.00,0.0371
3163.00,0.0374
3162.00,0.0377
3161.00,0.0380
3160.00,0.0383
3159.00,0.0386
3158.00,0.0389
3157.00,0.0391
3156.00,0.0393
3155.00,0.0394
3154.00,0.0395
3153.00,0.0397
3152.00,0.0400
3151.00,0.0404
3150.00,0.0409
3149.00,0.0414
3148.00,0.0418
3147.00,0.0421
3146.00,0.0424
3145.00,0.0427
3144.00,0.0429
3143.00,0.0430
3142.00,0.0431
3141.00,0.0432
3140.00,0.0434
3139.00,0.0436
3138.00,0.0440
3137.00,0.0444
3136.00,0.0449
3135.00,0.0452
3134.00,0.0456
3133.00,0.0458
3132.00,0.0460
3131.00,0.0463
3130.00,0.0465
3129.00,0.0469
3128.00,0.0473
3127.00,0.0477
3126.00,0.0480
3125.00,0.0483
3124.00,0.0485
3123.00,0.0486
3122.00,0.0486
3121.00,0.0487
3120.00,0.0488
3119.00,0.0491
3118.00,0.0494
3117.00,0.0497
3116.00,0.0502
3115.00,0.0507
3114.00,0.0512
3113.00,0.0517
3112.00,0.0520
3111.00,0.0523
3110.00,0.0525
3109.00,0.0528
3108.00,0.0532
3107.00,0.0536
3106.00,0.0541
3105.00,0.0545
3104.00,0.0549
3103.00,0.0552
3102.00,0.0554
3101.00,0.0557
3100.00,0.0561
3099.00,0.0566
3098.00,0.0570
3097.00,0.0575
3096.00,0.0579
3095.00,0.0583
3094.00,0.0586
3093.00,0.0588
3092.00,0.0590
3091.00,0.0593
3090.00,0.0596
3089.00,0.0598
3088.00,0.0601
3087.00,0.0602
3086.00,0.0603
3085.00,0.0604
3084.00,0.0605
3083.00,0.0607
3082.00,0.0608
3081.00,0.0609
3080.00,0.0611
3079.00,0.0614
3078.00,0.0619
3077.00,0.0624
3076.00,0.0631
3075.00,0.0637
3074.00,0.0644
3073.00,0.0651
3072.00,0.0660
3071.00,0.0669
3070.00,0.0680
3069.00,0.0694
3068.00,0.0713
3067.00,0.0739
3066.00,0.0772
3065.00,0.0815
3064.00,0.0869
3063.00,0.0934
3062.00,0.1007
3061.00,0.1082
3060.00,0.1149
3059.00,0.1196
3058.00,0.1214
3057.00,0.1203
3056.00,0.1165
3055.00,0.1112
3054.00,0.1053
3053.00,0.0997
3052.00,0.0948
3051.00,0.0909
3050.00,0.0879
3049.00,0.0856
3048.00,0.0838
3047.00,0.0824
3046.00,0.0814
3045.00,0.0806
3044.00,0.0801
3043.00,0.0797
3042.00,0.0796
3041.00,0.0795
3040.00,0.0796
3039.00,0.0797
3038.00,0.0798
3037.00,0.0798
3036.00,0.0799
3035.00,0.0801
3034.00,0.0803
3033.00,0.0806
3032.00,0.0809
3031.00,0.0813
3030.00,0.0817
3029.00,0.0821
3028.00,0.0825
3027.00,0.0828
3026.00,0.0832
3025.00,0.0835
3024.00,0.0839
3023.00,0.0842
3022.00,0.0846
3021.00,0.0849
3020.00,0.0853
3019.00,0.0856
3018.00,0.0859
3017.00,0.0862
3016.00,0.0865
3015.00,0.0868
3014.00,0.0871
3013.00,0.0875
3012.00,0.0879
3011.00,0.0883
3010.00,0.0888
3009.00,0.0892
3008.00,0.0896
3007.00,0.0899
3006.00,0.0902
3005.00,0.0905
3004.00,0.0909
3003.00,0.0912
3002.00,0.0915
3001.00,0.0917
3000.00,0.0920
2999.00,0.0922
2998.00,0.0924
2997.00,0.0925
2996.00,0.0927
2995.00,0.0927
2994.00,0.0927
2993.00,0.0927
2992.00,0.0926
2991.00,0.0926
2990.00,0.0925
2989.00,0.0924
2988.00,0.0923
2987.00,0.0922
2986.00,0.0921
2985.00,0.0920
2984.00,0.0919
2983.00,0.0919
2982.00,0.0919
2981.00,0.0921
2980.00,0.0924
2979.00,0.0928
2978.00,0.0933
2977.00,0.0937
2976.00,0.0941
2975.00,0.0945
2974.00,0.0948
2973.00,0.0951
2972.00,0.0954
2971.00,0.0957
2970.00,0.0960
2969.00,0.0963
2968.00,0.0966
2967.00,0.0968
2966.00,0.0970
2965.00,0.0972
2964.00,0.0974
2963.00,0.0976
2962.00,0.0979
2961.00,0.0982
2960.00,0.0986
2959.00,0.0989
2958.00,0.0993
2957.00,0.0997
2956.00,0.1001
2955.00,0.1005
2954.00,0.1010
2953.00,0.1015
2952.00,0.1020
2951.00,0.1026
2950.00,0.1031
2949.00,0.1037
2948.00,0.1042
2947.00,0.1047
2946.00,0.1052
2945.00,0.1058
2944.00,0.1064
2943.00,0.1070
2942.00,0.1076
2941.00,0.1082
2940.00,0.1087
2939.00,0.1092
2938.00,0.1096
2937.00,0.1101
2936.00,0.1106
2935.00,0.1110
2934.00,0.1114
2933.00,0.1118
2932.00,0.1121
2931.00,0.1125
2930.00,0.1129
2929.00,0.1134
2928.00,0.1139
2927.00,0.1144
2926.00,0.1149
2925.00,0.1152
2924.00,0.1156
2923.00,0.1159
2922.00,0.1161
2921.00,0.1163
2920.00,0.1165
2919.00,0.1166
2918.00,0.1167
2917.00,0.1168
2916.00,0.1169
2915.00,0.1170
2914.00,0.1171
2913.00,0.1173
2912.00,0.1175
2911.00,0.1176
2910.00,0.1178
2909.00,0.1179
2908.00,0.1180
2907.00,0.1180
2906.00,0.1180
2905.00,0.1181
2904.00,0.1182
2903.00,0.1183
2902.00,0.1184
2901.00,0.1186
2900.00,0.1187
2899.00,0.1189
2898.00,0.1192
2897.00,0.1194
2896.00,0.1197
2895.00,0.1201
2894.00,0.1205
2893.00,0.1209
2892.00,0.1213
2891.00,0.1216
2890.00,0.1219
2889.00,0.1223
2888.00,0.1226
2887.00,0.1228
2886.00,0.1231
2885.00,0.1233
2884.00,0.1234
2883.00,0.1235
2882.00,0.1237
2881.00,0.1238
2880.00,0.1239
2879.00,0.1239
2878.00,0.1240
2877.00,0.1240
2876.00,0.1240
2875.00,0.1239
2874.00,0.1239
2873.00,0.1239
2872.00,0.1240
2871.00,0.1241
2870.00,0.1240
2869.00,0.1239
2868.00,0.1238
2867.00,0.1236
2866.00,0.1233
2865.00,0.1231
2864.00,0.1229
2863.00,0.1226
2862.00,0.1223
2861.00,0.1220
2860.00,0.1217
2859.00,0.1215
2858.00,0.1213
2857.00,0.1210
2856.00,0.1208
2855.00,0.1205
2854.00,0.1203
2853.00,0.1200
2852.00,0.1197
2851.00,0.1194
2850.00,0.1192
2849.00,0.1189
2848.00,0.1187
2847.00,0.1185
2846.00,0.1183
2845.00,0.1181
2844.00,0.1179
2843.00,0.1176
2842.00,0.1173
2841.00,0.1170
2840.00,0.1167
2839.00,0.1164
2838.00,0.1162
2837.00,0.1160
2836.00,0.1158
2835.00,0.1156
2834.00,0.1153
2833.00,0.1150
2832.00,0.1147
2831.00,0.1144
2830.00,0.1141
2829.00,0.1137
2828.00,0.1134
2827.00,0.1130
2826.00,0.1126
2825.00,0.1122
2824.00,0.1118
2823.00,0.1114
2822.00,0.1111
2821.00,0.1107
2820.00,0.1104
2819.00,0.1100
2818.00,0.1098
2817.00,0.1095
2816.00,0.1093
2815.00,0.1091
2814.00,0.1089
2813.00,0.1088
2812.00,0.1088
2811.00,0.1088
2810.00,0.1089
2809.00,0.1090
2808.00,0.1092
2807.00,0.1095
2806.00,0.1098
2805.00,0.1102
2804.00,0.1106
2803.00,0.1111
2802.00,0.1117
2801.00,0.1122
2800.00,0.1128
2799.00,0.1133
2798.00,0.1138
2797.00,0.1143
2796.00,0.1147
2795.00,0.1149
2794.00,0.1150
2793.00,0.1149
2792.00,0.1146
2791.00,0.1142
2790.00,0.1136
2789.00,0.1130
2788.00,0.1123
2787.00,0.1115
2786.00,0.1106
2785.00,0.1097
2784.00,0.1087
2783.00,0.1077
2782.00,0.1067
2781.00,0.1057
2780.00,0.1046
2779.00,0.1036
2778.00,0.1026
2777.00,0.1016
2776.00,0.1006
2775.00,0.0997
2774.00,0.0988
2773.00,0.0979
2772.00,0.0970
2771.00,0.0961
2770.00,0.0952
2769.00,0.0944
2768.00,0.0936
2767.00,0.0928
2766.00,0.0921
2765.00,0.0914
2764.00,0.0907
2763.00,0.0901
2762.00,0.0895
2761.00,0.0890
2760.00,0.0885
2759.00,0.0880
2758.00,0.0876
2757.00,0.0872
2756.00,0.0869
2755.00,0.0866
2754.00,0.0863
2753.00,0.0861
2752.00,0.0859
2751.00,0.0857
2750.00,0.0856
2749.00,0.0854
2748.00,0.0853
2747.00,0.0852
2746.00,0.0851
2745.00,0.0850
2744.00,0.0849
2743.00,0.0848
2742.00,0.0847
2741.00,0.0847
2740.00,0.0847
2739.00,0.0847
2738.00,0.0848
2737.00,0.0849
2736.00,0.0851
2735.00,0.0854
2734.00,0.0858
2733.00,0.0862
2732.00,0.0867
2731.00,0.0871
2730.00,0.0876
2729.00,0.0880
2728.00,0.0883
2727.00,0.0886
2726.00,0.0889
2725.00,0.0890
2724.00,0.0891
2723.00,0.0892
2722.00,0.0892
2721.00,0.0891
2720.00,0.0890
2719.00,0.0889
2718.00,0.0887
2717.00,0.0885
2716.00,0.0883
2715.00,0.0881
2714.00,0.0878
2713.00,0.0876
2712.00,0.0874
2711.00,0.0872
2710.00,0.0870
2709.00,0.0869
2708.00,0.0868
2707.00,0.0868
2706.00,0.0868
2705.00,0.0869
2704.00,0.0871
2703.00,0.0874
2702.00,0.0879
2701.00,0.0884
2700.00,0.0891
2699.00,0.0900
2698.00,0.0910
2697.00,0.0921
2696.00,0.0933
2695.00,0.0946
2694.00,0.0959
2693.00,0.0972
2692.00,0.0985
2691.00,0.0997
2690.00,0.1007
2689.00,0.1015
2688.00,0.1022
2687.00,0.1027
2686.00,0.1029
2685.00,0.1030
2684.00,0.1029
2683.00,0.1027
2682.00,0.1023
2681.00,0.1017
2680.00,0.1011
2679.00,0.1003
2678.00,0.0995
2677.00,0.0986
2676.00,0.0977
2675.00,0.0967
2674.00,0.0958
2673.00,0.0949
2672.00,0.0940
2671.00,0.0931
2670.00,0.0923
2669.00,0.0914
2668.00,0.0907
2667.00,0.0900
2666.00,0.0893
2665.00,0.0887
2664.00,0.0882
2663.00,0.0877
2662.00,0.0872
2661.00,0.0868
2660.00,0.0864
2659.00,0.0861
2658.00,0.0858
2657.00,0.0855
2656.00,0.0853
2655.00,0.0851
2654.00,0.0849
2653.00,0.0847
2652.00,0.0846
2651.00,0.0844
2650.00,0.0843
2649.00,0.0841
2648.00,0.0839
2647.00,0.0837
2646.00,0.0836
2645.00,0.0834
2644.00,0.0832
2643.00,0.0831
2642.00,0.0829
2641.00,0.0827
2640.00,0.0826
2639.00,0.0825
2638.00,0.0824
2637.00,0.0823
2636.00,0.0824
2635.00,0.0825
2634.00,0.0826
2633.00,0.0829
2632.00,0.0834
2631.00,0.0840
2630.00,0.0847
2629.00,0.0857
2628.00,0.0869
2627.00,0.0883
2626.00,0.0900
2625.00,0.0919
2624.00,0.0939
2623.00,0.0962
2622.00,0.0986
2621.00,0.1012
2620.00,0.1038
2619.00,0.1065
2618.00,0.1092
2617.00,0.1119
2616.00,0.1144
2615.00,0.1169
2614.00,0.1191
2613.00,0.1212
2612.00,0.1230
2611.00,0.1246
2610.00,0.1259
2609.00,0.1269
2608.00,0.1276
2607.00,0.1280
2606.00,0.1282
2605.00,0.1282
2604.00,0.1281
2603.00,0.1278
2602.00,0.1273
2601.00,0.1268
2600.00,0.1263
2599.00,0.1256
2598.00,0.1250
2597.00,0.1244
2596.00,0.1238
2595.00,0.1232
2594.00,0.1227
2593.00,0.1223
2592.00,0.1220
2591.00,0.1218
2590.00,0.1218
2589.00,0.1219
2588.00,0.1222
2587.00,0.1225
2586.00,0.1228
2585.00,0.1231
2584.00,0.1233
2583.00,0.1234
2582.00,0.1233
2581.00,0.1232
2580.00,0.1229
2579.00,0.1224
2578.00,0.1219
2577.00,0.1213
2576.00,0.1206
2575.00,0.1199
2574.00,0.1193
2573.00,0.1187
2572.00,0.1180
2571.00,0.1174
2570.00,0.1168
2569.00,0.1162
2568.00,0.1157
2567.00,0.1152
2566.00,0.1147
2565.00,0.1143
2564.00,0.1138
2563.00,0.1135
2562.00,0.1131
2561.00,0.1128
2560.00,0.1126
2559.00,0.1124
2558.00,0.1122
2557.00,0.1120
2556.00,0.1119
2555.00,0.1119
2554.00,0.1119
2553.00,0.1119
2552.00,0.1119
2551.00,0.1118
2550.00,0.1117
2549.00,0.1115
2548.00,0.1114
2547.00,0.1112
2546.00,0.1111
2545.00,0.1110
2544.00,0.1109
2543.00,0.1109
2542.00,0.1110
2541.00,0.1111
2540.00,0.1112
2539.00,0.1114
2538.00,0.1115
2537.00,0.1117
2536.00,0.1119
2535.00,0.1121
2534.00,0.1124
2533.00,0.1126
2532.00,0.1129
2531.00,0.1132
2530.00,0.1135
2529.00,0.1139
2528.00,0.1143
2527.00,0.1147
2526.00,0.1152
2525.00,0.1158
2524.00,0.1164
2523.00,0.1171
2522.00,0.1178
2521.00,0.1186
2520.00,0.1194
2519.00,0.1202
2518.00,0.1210
2517.00,0.1219
2516.00,0.1227
2515.00,0.1236
2514.00,0.1245
2513.00,0.1252
2512.00,0.1259
2511.00,0.1266
2510.00,0.1272
2509.00,0.1277
2508.00,0.1281
2507.00,0.1283
2506.00,0.1285
2505.00,0.1285
2504.00,0.1285
2503.00,0.1283
2502.00,0.1280
2501.00,0.1277
2500.00,0.1272
2499.00,0.1267
2498.00,0.1262
2497.00,0.1255
2496.00,0.1249
2495.00,0.1243
2494.00,0.1237
2493.00,0.1232
2492.00,0.1227
2491.00,0.1222
2490.00,0.1218
2489.00,0.1215
2488.00,0.1212
2487.00,0.1209
2486.00,0.1206
2485.00,0.1204
2484.00,0.1203
2483.00,0.1201
2482.00,0.1200
2481.00,0.1198
2480.00,0.1196
2479.00,0.1193
2478.00,0.1190
2477.00,0.1187
2476.00,0.1183
2475.00,0.1180
2474.00,0.1176
2473.00,0.1172
2472.00,0.1168
2471.00,0.1164
2470.00,0.1160
2469.00,0.1157
2468.00,0.1154
2467.00,0.1151
2466.00,0.1148
2465.00,0.1147
2464.00,0.1145
2463.00,0.1144
2462.00,0.1142
2461.00,0.1141
2460.00,0.1141
2459.00,0.1140
2458.00,0.1140
2457.00,0.1140
2456.00,0.1141
2455.00,0.1141
2454.00,0.1143
2453.00,0.1144
2452.00,0.1146
2451.00,0.1148
2450.00,0.1149
2449.00,0.1152
2448.00,0.1154
2447.00,0.1157
2446.00,0.1160
2445.00,0.1163
2444.00,0.1166
2443.00,0.1169
2442.00,0.1173
2441.00,0.1177
2440.00,0.1182
2439.00,0.1187
2438.00,0.1193
2437.00,0.1197
2436.00,0.1202
2435.00,0.1206
2434.00,0.1209
2433.00,0.1212
2432.00,0.1214
2431.00,0.1216
2430.00,0.1217
2429.00,0.1218
2428.00,0.1219
2427.00,0.1219
2426.00,0.1219
2425.00,0.1219
2424.00,0.1219
2423.00,0.1219
2422.00,0.1219
2421.00,0.1220
2420.00,0.1221
2419.00,0.1223
2418.00,0.1226
2417.00,0.1229
2416.00,0.1232
2415.00,0.1235
2414.00,0.1238
2413.00,0.1241
2412.00,0.1244
2411.00,0.1247
2410.00,0.1249
2409.00,0.1251
2408.00,0.1252
2407.00,0.1253
2406.00,0.1254
2405.00,0.1255
2404.00,0.1257
2403.00,0.1258
2402.00,0.1259
2401.00,0.1260
2400.00,0.1261
2399.00,0.1262
2398.00,0.1263
2397.00,0.1265
2396.00,0.1267
2395.00,0.1269
2394.00,0.1271
2393.00,0.1273
2392.00,0.1275
2391.00,0.1277
2390.00,0.1278
2389.00,0.1279
2388.00,0.1281
2387.00,0.1282
2386.00,0.1283
2385.00,0.1284
2384.00,0.1285
2383.00,0.1285
2382.00,0.1285
2381.00,0.1285
2380.00,0.1285
2379.00,0.1284
2378.00,0.1283
2377.00,0.1233
2376.00,0.1232
2375.00,0.1230
2374.00,0.1228
2373.00,0.1226
2372.00,0.1223
2371.00,0.1221
2370.00,0.1218
2369.00,0.1215
2368.00,0.1213
2367.00,0.1210
2366.00,0.1207
2365.00,0.1204
2364.00,0.1201
2363.00,0.1199
2362.00,0.1196
2361.00,0.1193
2360.00,0.1189
2359.00,0.1186
2358.00,0.1185
2357.00,0.1185
2356.00,0.1187
2355.00,0.1187
2354.00,0.1185
2353.00,0.1182
2352.00,0.1178
2351.00,0.1175
2350.00,0.1170
2349.00,0.1165
2348.00,0.1159
2347.00,0.1153
2346.00,0.1146
2345.00,0.1139
2344.00,0.1135
2343.00,0.1133
2342.00,0.1135
2341.00,0.1138
2340.00,0.1142
2339.00,0.1143
2338.00,0.1141
2337.00,0.1137
2336.00,0.1135
2335.00,0.1132
2334.00,0.1128
2333.00,0.1123
2332.00,0.1117
2331.00,0.1112
2330.00,0.1107
2329.00,0.1104
2328.00,0.1104
2327.00,0.1106
2326.00,0.1108
2325.00,0.1110
2324.00,0.1110
2323.00,0.1111
2322.00,0.1112
2321.00,0.1115
2320.00,0.1119
2319.00,0.1122
2318.00,0.1123
2317.00,0.1124
2316.00,0.1122
2315.00,0.1117
2314.00,0.1110
2313.00,0.1103
2312.00,0.1094
2311.00,0.1087
2310.00,0.1081
2309.00,0.1078
2308.00,0.1075
2307.00,0.1074
2306.00,0.1074
2305.00,0.1074
2304.00,0.1072
2303.00,0.1070
2302.00,0.1067
2301.00,0.1064
2300.00,0.1063
2299.00,0.1061
2298.00,0.1060
2297.00,0.1058
2296.00,0.1057
2295.00,0.1055
2294.00,0.1053
2293.00,0.1051
2292.00,0.1049
2291.00,0.1046
2290.00,0.1042
2289.00,0.1037
2288.00,0.1031
2287.00,0.1024
2286.00,0.1017
2285.00,0.1010
2284.00,0.1002
2283.00,0.0994
2282.00,0.0987
2281.00,0.0979
2280.00,0.0971
2279.00,0.0963
2278.00,0.0955
2277.00,0.0947
2276.00,0.0938
2275.00,0.0929
2274.00,0.0919
2273.00,0.0910
2272.00,0.0900
2271.00,0.0890
2270.00,0.0880
2269.00,0.0870
2268.00,0.0860
2267.00,0.0851
2266.00,0.0843
2265.00,0.0836
2264.00,0.0830
2263.00,0.0823
2262.00,0.0817
2261.00,0.0812
2260.00,0.0808
2259.00,0.0804
2258.00,0.0799
2257.00,0.0795
2256.00,0.0790
2255.00,0.0786
2254.00,0.0783
2253.00,0.0781
2252.00,0.0780
2251.00,0.0779
2250.00,0.0777
2249.00,0.0776
2248.00,0.0776
2247.00,0.0775
2246.00,0.0775
2245.00,0.0774
2244.00,0.0773
2243.00,0.0772
2242.00,0.0772
2241.00,0.0771
2240.00,0.0771
2239.00,0.0771
2238.00,0.0770
2237.00,0.0771
2236.00,0.0772
2235.00,0.0771
2234.00,0.0770
2233.00,0.0768
2232.00,0.0765
2231.00,0.0761
2230.00,0.0757
2229.00,0.0754
2228.00,0.0751
2227.00,0.0747
2226.00,0.0743
2225.00,0.0739
2224.00,0.0737
2223.00,0.0734
2222.00,0.0732
2221.00,0.0730
2220.00,0.0728
2219.00,0.0725
2218.00,0.0722
2217.00,0.0721
2216.00,0.0721
2215.00,0.0721
2214.00,0.0722
2213.00,0.0723
2212.00,0.0723
2211.00,0.0723
2210.00,0.0723
2209.00,0.0725
2208.00,0.0727
2207.00,0.0730
2206.00,0.0733
2205.00,0.0736
2204.00,0.0739
2203.00,0.0741
2202.00,0.0744
2201.00,0.0747
2200.00,0.0750
2199.00,0.0753
2198.00,0.0756
2197.00,0.0760
2196.00,0.0764
2195.00,0.0767
2194.00,0.0769
2193.00,0.0771
2192.00,0.0773
2191.00,0.0775
2190.00,0.0778
2189.00,0.0781
2188.00,0.0785
2187.00,0.0787
2186.00,0.0788
2185.00,0.0788
2184.00,0.0788
2183.00,0.0789
2182.00,0.0791
2181.00,0.0795
2180.00,0.0801
2179.00,0.0805
2178.00,0.0808
2177.00,0.0813
2176.00,0.0819
2175.00,0.0826
2174.00,0.0834
2173.00,0.0842
2172.00,0.0851
2171.00,0.0859
2170.00,0.0865
2169.00,0.0871
2168.00,0.0874
2167.00,0.0875
2166.00,0.0873
2165.00,0.0872
2164.00,0.0870
2163.00,0.0867
2162.00,0.0859
2161.00,0.0847
2160.00,0.0833
2159.00,0.0822
2158.00,0.0817
2157.00,0.0816
2156.00,0.0815
2155.00,0.0813
2154.00,0.0810
2153.00,0.0808
2152.00,0.0804
2151.00,0.0800
2150.00,0.0795
2149.00,0.0791
2148.00,0.0787
2147.00,0.0781
2146.00,0.0775
2145.00,0.0768
2144.00,0.0762
2143.00,0.0755
2142.00,0.0747
2141.00,0.0741
2140.00,0.0734
2139.00,0.0726
2138.00,0.0718
2137.00,0.0710
2136.00,0.0703
2135.00,0.0695
2134.00,0.0689
2133.00,0.0684
2132.00,0.0681
2131.00,0.0678
2130.00,0.0674
2129.00,0.0670
2128.00,0.0666
2127.00,0.0662
2126.00,0.0657
2125.00,0.0653
2124.00,0.0649
2123.00,0.0644
2122.00,0.0641
2121.00,0.0638
2120.00,0.0637
2119.00,0.0636
2118.00,0.0636
2117.00,0.0636
2116.00,0.0637
2115.00,0.0636
2114.00,0.0635
2113.00,0.0633
2112.00,0.0630
2111.00,0.0627
2110.00,0.0623
2109.00,0.0618
2108.00,0.0613
2107.00,0.0607
2106.00,0.0600
2105.00,0.0593
2104.00,0.0586
2103.00,0.0578
2102.00,0.0571
2101.00,0.0565
2100.00,0.0559
2099.00,0.0552
2098.00,0.0544
2097.00,0.0537
2096.00,0.0530
2095.00,0.0525
2094.00,0.0520
2093.00,0.0518
2092.00,0.0515
2091.00,0.0513
2090.00,0.0510
2089.00,0.0508
2088.00,0.0505
2087.00,0.0503
2086.00,0.0500
2085.00,0.0498
2084.00,0.0495
2083.00,0.0492
2082.00,0.0488
2081.00,0.0485
2080.00,0.0483
2079.00,0.0480
2078.00,0.0476
2077.00,0.0474
2076.00,0.0472
2075.00,0.0469
2074.00,0.0467
2073.00,0.0465
2072.00,0.0464
2071.00,0.0463
2070.00,0.0460
2069.00,0.0458
2068.00,0.0456
2067.00,0.0454
2066.00,0.0453
2065.00,0.0453
2064.00,0.0453
2063.00,0.0450
2062.00,0.0448
2061.00,0.0446
2060.00,0.0446
2059.00,0.0446
2058.00,0.0446
2057.00,0.0445
2056.00,0.0444
2055.00,0.0443
2054.00,0.0445
2053.00,0.0449
2052.00,0.0453
2051.00,0.0453
2050.00,0.0450
2049.00,0.0446
2048.00,0.0444
2047.00,0.0443
2046.00,0.0441
2045.00,0.0441
2044.00,0.0442
2043.00,0.0444
2042.00,0.0448
2041.00,0.0455
2040.00,0.0461
2039.00,0.0464
2038.00,0.0463
2037.00,0.0460
2036.00,0.0454
2035.00,0.0443
2034.00,0.0430
2033.00,0.0420
2032.00,0.0411
2031.00,0.0401
2030.00,0.0392
2029.00,0.0385
2028.00,0.0380
2027.00,0.0374
2026.00,0.0369
2025.00,0.0366
2024.00,0.0363
2023.00,0.0358
2022.00,0.0353
2021.00,0.0348
2020.00,0.0344
2019.00,0.0340
2018.00,0.0338
2017.00,0.0338
2016.00,0.0338
2015.00,0.0335
2014.00,0.0331
2013.00,0.0329
2012.00,0.0328
2011.00,0.0325
2010.00,0.0322
2009.00,0.0319
2008.00,0.0316
2007.00,0.0313
2006.00,0.0310
2005.00,0.0310
2004.00,0.0311
2003.00,0.0311
2002.00,0.0311
2001.00,0.0312
2000.00,0.0312
1999.00,0.0311
1998.00,0.0310
1997.00,0.0310
1996.00,0.0309
1995.00,0.0307
1994.00,0.0305
1993.00,0.0307
1992.00,0.0311
1991.00,0.0311
1990.00,0.0310
1989.00,0.0309
1988.00,0.0309
1987.00,0.0308
1986.00,0.0305
1985.00,0.0305
1984.00,0.0306
1983.00,0.0308
1982.00,0.0309
1981.00,0.0309
1980.00,0.0305
1979.00,0.0298
1978.00,0.0291
1977.00,0.0290
1976.00,0.0293
1975.00,0.0294
1974.00,0.0294
1973.00,0.0296
1972.00,0.0298
1971.00,0.0299
1970.00,0.0299
1969.00,0.0303
1968.00,0.0310
1967.00,0.0317
1966.00,0.0321
1965.00,0.0323
1964.00,0.0324
1963.00,0.0324
1962.00,0.0326
1961.00,0.0329
1960.00,0.0333
1959.00,0.0336
1958.00,0.0340
1957.00,0.0346
1956.00,0.0352
1955.00,0.0356
1954.00,0.0359
1953.00,0.0362
1952.00,0.0365
1951.00,0.0369
1950.00,0.0372
1949.00,0.0377
1948.00,0.0383
1947.00,0.0387
1946.00,0.0390
1945.00,0.0393
1944.00,0.0400
1943.00,0.0410
1942.00,0.0420
1941.00,0.0429
1940.00,0.0435
1939.00,0.0440
1938.00,0.0447
1937.00,0.0455
1936.00,0.0463
1935.00,0.0470
1934.00,0.0476
1933.00,0.0483
1932.00,0.0489
1931.00,0.0495
1930.00,0.0501
1929.00,0.0507
1928.00,0.0513
1927.00,0.0517
1926.00,0.0521
1925.00,0.0525
1924.00,0.0529
1923.00,0.0532
1922.00,0.0535
1921.00,0.0537
1920.00,0.0538
1919.00,0.0538
1918.00,0.0538
1917.00,0.0539
1916.00,0.0540
1915.00,0.0541
1914.00,0.0540
1913.00,0.0540
1912.00,0.0540
1911.00,0.0540
1910.00,0.0540
1909.00,0.0546
1908.00,0.0548
1907.00,0.0549
1906.00,0.0549
1905.00,0.0551
1904.00,0.0553
1903.00,0.0556
1902.00,0.0559
1901.00,0.0562
1900.00,0.0565
1899.00,0.0567
1898.00,0.0569
1897.00,0.0571
1896.00,0.0573
1895.00,0.0577
1894.00,0.0578
1893.00,0.0576
1892.00,0.0574
1891.00,0.0576
1890.00,0.0583
1889.00,0.0592
1888.00,0.0597
1887.00,0.0596
1886.00,0.0594
1885.00,0.0591
1884.00,0.0588
1883.00,0.0581
1882.00,0.0574
1881.00,0.0567
1880.00,0.0561
1879.00,0.0554
1878.00,0.0548
1877.00,0.0543
1876.00,0.0539
1875.00,0.0535
1874.00,0.0530
1873.00,0.0527
1872.00,0.0523
1871.00,0.0520
1870.00,0.0517
1869.00,0.0514
1868.00,0.0512
1867.00,0.0508
1866.00,0.0504
1865.00,0.0500
1864.00,0.0497
1863.00,0.0493
1862.00,0.0489
1861.00,0.0485
1860.00,0.0481
1859.00,0.0476
1858.00,0.0470
1857.00,0.0465
1856.00,0.0459
1855.00,0.0452
1854.00,0.0445
1853.00,0.0439
1852.00,0.0433
1851.00,0.0427
1850.00,0.0420
1849.00,0.0414
1848.00,0.0408
1847.00,0.0402
1846.00,0.0395
1845.00,0.0389
1844.00,0.0384
1843.00,0.0379
1842.00,0.0374
1841.00,0.0369
1840.00,0.0365
1839.00,0.0360
1838.00,0.0355
1837.00,0.0352
1836.00,0.0348
1835.00,0.0345
1834.00,0.0342
1833.00,0.0339
1832.00,0.0336
1831.00,0.0334
1830.00,0.0331
1829.00,0.0329
1828.00,0.0327
1827.00,0.0325
1826.00,0.0323
1825.00,0.0321
1824.00,0.0320
1823.00,0.0319
1822.00,0.0317
1821.00,0.0317
1820.00,0.0316
1819.00,0.0316
1818.00,0.0318
1817.00,0.0321
1816.00,0.0325
1815.00,0.0326
1814.00,0.0324
1813.00,0.0324
1812.00,0.0324
1811.00,0.0325
1810.00,0.0323
1809.00,0.0319
1808.00,0.0314
1807.00,0.0307
1806.00,0.0299
1805.00,0.0293
1804.00,0.0289
1803.00,0.0284
1802.00,0.0279
1801.00,0.0275
1800.00,0.0272
1799.00,0.0269
1798.00,0.0265
1797.00,0.0262
1796.00,0.0260
1795.00,0.0257
1794.00,0.0255
1793.00,0.0253
1792.00,0.0252
1791.00,0.0250
1790.00,0.0248
1789.00,0.0245
1788.00,0.0244
1787.00,0.0242
1786.00,0.0239
1785.00,0.0238
1784.00,0.0236
1783.00,0.0234
1782.00,0.0231
1781.00,0.0229
1780.00,0.0226
1779.00,0.0224
1778.00,0.0220
1777.00,0.0218
1776.00,0.0215
1775.00,0.0213
1774.00,0.0210
1773.00,0.0207
1772.00,0.0205
1771.00,0.0203
1770.00,0.0200
1769.00,0.0197
1768.00,0.0195
1767.00,0.0193
1766.00,0.0190
1765.00,0.0188
1764.00,0.0187
1763.00,0.0186
1762.00,0.0184
1761.00,0.0184
1760.00,0.0184
1759.00,0.0184
1758.00,0.0183
1757.00,0.0184
1756.00,0.0185
1755.00,0.0186
1754.00,0.0187
1753.00,0.0189
1752.00,0.0194
1751.00,0.0198
1750.00,0.0203
1749.00,0.0209
1748.00,0.0216
1747.00,0.0225
1746.00,0.0234
1745.00,0.0245
1744.00,0.0259
1743.00,0.0273
1742.00,0.0287
1741.00,0.0305
1740.00,0.0325
1739.00,0.0346
1738.00,0.0365
1737.00,0.0383
1736.00,0.0403
1735.00,0.0427
1734.00,0.0455
1733.00,0.0483
1732.00,0.0506
1731.00,0.0524
1730.00,0.0546
1729.00,0.0560
1728.00,0.0574
1727.00,0.0588
1726.00,0.0606
1725.00,0.0635
1724.00,0.0675
1723.00,0.0718
1722.00,0.0750
1721.00,0.0773
1720.00,0.0804
1719.00,0.0870
1718.00,0.0981
1717.00,0.1114
1716.00,0.1240
1715.00,0.1363
1714.00,0.1502
1713.00,0.1668
1712.00,0.1862
1711.00,0.2086
1710.00,0.2343
1709.00,0.2621
1708.00,0.2907
1707.00,0.3199
1706.00,0.3475
1705.00,0.3655
1704.00,0.3679
1703.00,0.3563
1702.00,0.3331
1701.00,0.2986
1700.00,0.2598
1699.00,0.2270
1698.00,0.2015
1697.00,0.1789
1696.00,0.1570
1695.00,0.1367
1694.00,0.1194
1693.00,0.1049
1692.00,0.0933
1691.00,0.0843
1690.00,0.0772
1689.00,0.0708
1688.00,0.0645
1687.00,0.0592
1686.00,0.0554
1685.00,0.0536
1684.00,0.0529
1683.00,0.0508
1682.00,0.0481
1681.00,0.0463
1680.00,0.0451
1679.00,0.0430
1678.00,0.0400
1677.00,0.0421
1676.00,0.0415
1675.00,0.0410
1674.00,0.0408
1673.00,0.0407
1672.00,0.0408
1671.00,0.0412
1670.00,0.0419
1669.00,0.0428
1668.00,0.0438
1667.00,0.0447
1666.00,0.0456
1665.00,0.0467
1664.00,0.0479
1663.00,0.0495
1662.00,0.0513
1661.00,0.0533
1660.00,0.0555
1659.00,0.0580
1658.00,0.0609
1657.00,0.0638
1656.00,0.0668
1655.00,0.0703
1654.00,0.0756
1653.00,0.0830
1652.00,0.0944
1651.00,0.0988
1650.00,0.0989
1649.00,0.1005
1648.00,0.1076
1647.00,0.1201
1646.00,0.1341
1645.00,0.1468
1644.00,0.1579
1643.00,0.1681
1642.00,0.1791
1641.00,0.1908
1640.00,0.2019
1639.00,0.2114
1638.00,0.2200
1637.00,0.2298
1636.00,0.2407
1635.00,0.2500
1634.00,0.2548
1633.00,0.2556
1632.00,0.2540
1631.00,0.2509
1630.00,0.2472
1629.00,0.2433
1628.00,0.2392
1627.00,0.2347
1626.00,0.2295
1625.00,0.2243
1624.00,0.2200
1623.00,0.2168
1622.00,0.2140
1621.00,0.2106
1620.00,0.2070
1619.00,0.2045
1618.00,0.2048
1617.00,0.2081
1616.00,0.2119
1615.00,0.2140
1614.00,0.2147
1613.00,0.2161
1612.00,0.2191
1611.00,0.2233
1610.00,0.2284
1609.00,0.2343
1608.00,0.2407
1607.00,0.2473
1606.00,0.2541
1605.00,0.2615
1604.00,0.2694
1603.00,0.2779
1602.00,0.2867
1601.00,0.2958
1600.00,0.3050
1599.00,0.3144
1598.00,0.3239
1597.00,0.3338
1596.00,0.3443
1595.00,0.3549
1594.00,0.3655
1593.00,0.3760
1592.00,0.3866
1591.00,0.3970
1590.00,0.4070
1589.00,0.4165
1588.00,0.4250
1587.00,0.4318
1586.00,0.4363
1585.00,0.4381
1584.00,0.4368
1583.00,0.4323
1582.00,0.4254
1581.00,0.4170
1580.00,0.4085
1579.00,0.4016
1578.00,0.3991
1577.00,0.4029
1576.00,0.4120
1575.00,0.4215
1574.00,0.4282
1573.00,0.4334
1572.00,0.4399
1571.00,0.4497
1570.00,0.4628
1569.00,0.4767
1568.00,0.4878
1567.00,0.4952
1566.00,0.5000
1565.00,0.5031
1564.00,0.5042
1563.00,0.5019
1562.00,0.4966
1561.00,0.4899
1560.00,0.4850
1559.00,0.4843
1558.00,0.4816
1557.00,0.4763
1556.00,0.4711
1555.00,0.4662
1554.00,0.4612
1553.00,0.4553
1552.00,0.4490
1551.00,0.4427
1550.00,0.4368
1549.00,0.4300
1548.00,0.4234
1547.00,0.4168
1546.00,0.4098
1545.00,0.4027
1544.00,0.3958
1543.00,0.3890
1542.00,0.3819
1541.00,0.3748
1540.00,0.3675
1539.00,0.3603
1538.00,0.3533
1537.00,0.3468
1536.00,0.3407
1535.00,0.3346
1534.00,0.3284
1533.00,0.3223
1532.00,0.3168
1531.00,0.3115
1530.00,0.3064
1529.00,0.3015
1528.00,0.2969
1527.00,0.2925
1526.00,0.2882
1525.00,0.2841
1524.00,0.2803
1523.00,0.2764
1522.00,0.2726
1521.00,0.2689
1520.00,0.2655
1519.00,0.2619
1518.00,0.2581
1517.00,0.2544
1516.00,0.2508
1515.00,0.2471
1514.00,0.2433
1513.00,0.2396
1512.00,0.2360
1511.00,0.2324
1510.00,0.2286
1509.00,0.2250
1508.00,0.2214
1507.00,0.2178
1506.00,0.2140
1505.00,0.2102
1504.00,0.2065
1503.00,0.2026
1502.00,0.1985
1501.00,0.1925
1500.00,0.1870
1499.00,0.1819
1498.00,0.1778
1497.00,0.1749
1496.00,0.1719
1495.00,0.1674
1494.00,0.1611
1493.00,0.1544
1492.00,0.1487
1491.00,0.1448
1490.00,0.1427
1489.00,0.1417
1488.00,0.1414
1487.00,0.1420
1486.00,0.1438
1485.00,0.1469
1484.00,0.1513
1483.00,0.1573
1482.00,0.1651
1481.00,0.1745
1480.00,0.1841
1479.00,0.1934
1478.00,0.2027
1477.00,0.2127
1476.00,0.2230
1475.00,0.2329
1474.00,0.2435
1473.00,0.2559
1472.00,0.2688
1471.00,0.2798
1470.00,0.2884
1469.00,0.2956
1468.00,0.3023
1467.00,0.3091
1466.00,0.3172
1465.00,0.3272
1464.00,0.3374
1463.00,0.3459
1462.00,0.3516
1461.00,0.3548
1460.00,0.3562
1459.00,0.3568
1458.00,0.3573
1457.00,0.3565
1456.00,0.3524
1455.00,0.3447
1454.00,0.3350
1453.00,0.3250
1452.00,0.3156
1451.00,0.3068
1450.00,0.2990
1449.00,0.2933
1448.00,0.2903
1447.00,0.2896
1446.00,0.2908
1445.00,0.2936
1444.00,0.2982
1443.00,0.3047
1442.00,0.3129
1441.00,0.3220
1440.00,0.3314
1439.00,0.3417
1438.00,0.3553
1437.00,0.3740
1436.00,0.3952
1435.00,0.4130
1434.00,0.4255
1433.00,0.4341
1432.00,0.4400
1431.00,0.4429
1430.00,0.4426
1429.00,0.4397
1428.00,0.4345
1427.00,0.4273
1426.00,0.4192
1425.00,0.4112
1424.00,0.4030
1423.00,0.3941
1422.00,0.3848
1421.00,0.3760
1420.00,0.3684
1419.00,0.3621
1418.00,0.3559
1417.00,0.3493
1416.00,0.3424
1415.00,0.3357
1414.00,0.3291
1413.00,0.3229
1412.00,0.3170
1411.00,0.3112
1410.00,0.3054
1409.00,0.2995
1408.00,0.2936
1407.00,0.2887
1406.00,0.2836
1405.00,0.2786
1404.00,0.2738
1403.00,0.2691
1402.00,0.2646
1401.00,0.2602
1400.00,0.2559
1399.00,0.2519
1398.00,0.2480
1397.00,0.2442
1396.00,0.2406
1395.00,0.2371
1394.00,0.2337
1393.00,0.2303
1392.00,0.2268
1391.00,0.2234
1390.00,0.2199
1389.00,0.2163
1388.00,0.2127
1387.00,0.2090
1386.00,0.2052
1385.00,0.2018
1384.00,0.1975
1383.00,0.1934
1382.00,0.1894
1381.00,0.1856
1380.00,0.1818
1379.00,0.1781
1378.00,0.1742
1377.00,0.1702
1376.00,0.1664
1375.00,0.1632
1374.00,0.1604
1373.00,0.1577
1372.00,0.1548
1371.00,0.1523
1370.00,0.1503
1369.00,0.1489
1368.00,0.1476
1367.00,0.1460
1366.00,0.1439
1365.00,0.1415
1364.00,0.1392
1363.00,0.1371
1362.00,0.1348
1361.00,0.1320
1360.00,0.1289
1359.00,0.1258
1358.00,0.1228
1357.00,0.1200
1356.00,0.1172
1355.00,0.1146
1354.00,0.1121
1353.00,0.1095
1352.00,0.1070
1351.00,0.1046
1350.00,0.1023
1349.00,0.1002
1348.00,0.0981
1347.00,0.0960
1346.00,0.0941
1345.00,0.0922
1344.00,0.0904
1343.00,0.0886
1342.00,0.0872
1341.00,0.0864
1340.00,0.0860
1339.00,0.0856
1338.00,0.0849
1337.00,0.0842
1336.00,0.0838
1335.00,0.0839
1334.00,0.0844
1333.00,0.0851
1332.00,0.0860
1331.00,0.0869
1330.00,0.0877
1329.00,0.0882
1328.00,0.0882
1327.00,0.0875
1326.00,0.0862
1325.00,0.0843
1324.00,0.0822
1323.00,0.0802
1322.00,0.0786
1321.00,0.0774
1320.00,0.0765
1319.00,0.0758
1318.00,0.0753
1317.00,0.0747
1316.00,0.0741
1315.00,0.0736
1314.00,0.0734
1313.00,0.0732
1312.00,0.0730
1311.00,0.0727
1310.00,0.0724
1309.00,0.0722
1308.00,0.0722
1307.00,0.0723
1306.00,0.0726
1305.00,0.0731
1304.00,0.0739
1303.00,0.0751
1302.00,0.0766
1301.00,0.0785
1300.00,0.0807
1299.00,0.0833
1298.00,0.0862
1297.00,0.0894
1296.00,0.0929
1295.00,0.0966
1294.00,0.1007
1293.00,0.1051
1292.00,0.1099
1291.00,0.1151
1290.00,0.1209
1289.00,0.1271
1288.00,0.1339
1287.00,0.1411
1286.00,0.1488
1285.00,0.1570
1284.00,0.1657
1283.00,0.1750
1282.00,0.1849
1281.00,0.1952
1280.00,0.2061
1279.00,0.2175
1278.00,0.2293
1277.00,0.2416
1276.00,0.2543
1275.00,0.2676
1274.00,0.2814
1273.00,0.2958
1272.00,0.3108
1271.00,0.3263
1270.00,0.3423
1269.00,0.3586
1268.00,0.3754
1267.00,0.3923
1266.00,0.4088
1265.00,0.4246
1264.00,0.4388
1263.00,0.4507
1262.00,0.4596
1261.00,0.4652
1260.00,0.4675
1259.00,0.4668
1258.00,0.4634
1257.00,0.4582
1256.00,0.4519
1255.00,0.4446
1254.00,0.4369
1253.00,0.4289
1252.00,0.4208
1251.00,0.4126
1250.00,0.4043
1249.00,0.3957
1248.00,0.3871
1247.00,0.3783
1246.00,0.3693
1245.00,0.3603
1244.00,0.3513
1243.00,0.3423
1242.00,0.3334
1241.00,0.3246
1240.00,0.3161
1239.00,0.3078
1238.00,0.2999
1237.00,0.2924
1236.00,0.2853
1235.00,0.2788
1234.00,0.2727
1233.00,0.2672
1232.00,0.2626
1231.00,0.2589
1230.00,0.2567
1229.00,0.2563
1228.00,0.2586
1227.00,0.2649
1226.00,0.2760
1225.00,0.2929
1224.00,0.3154
1223.00,0.3417
1222.00,0.3686
1221.00,0.3921
1220.00,0.4085
1219.00,0.4160
1218.00,0.4151
1217.00,0.4080
1216.00,0.3973
1215.00,0.3853
1214.00,0.3732
1213.00,0.3617
1212.00,0.3512
1211.00,0.3417
1210.00,0.3331
1209.00,0.3254
1208.00,0.3185
1207.00,0.3125
1206.00,0.3071
1205.00,0.3025
1204.00,0.2986
1203.00,0.2953
1202.00,0.2926
1201.00,0.2903
1200.00,0.2886
1199.00,0.2872
1198.00,0.2860
1197.00,0.2850
1196.00,0.2841
1195.00,0.2831
1194.00,0.2818
1193.00,0.2802
1192.00,0.2780
1191.00,0.2752
1190.00,0.2720
1189.00,0.2686
1188.00,0.2651
1187.00,0.2617
1186.00,0.2584
1185.00,0.2554
1184.00,0.2527
1183.00,0.2503
1182.00,0.2481
1181.00,0.2461
1180.00,0.2443
1179.00,0.2427
1178.00,0.2410
1177.00,0.2394
1176.00,0.2377
1175.00,0.2359
1174.00,0.2340
1173.00,0.2320
1172.00,0.2299
1171.00,0.2277
1170.00,0.2254
1169.00,0.2232
1168.00,0.2209
1167.00,0.2187
1166.00,0.2166
1165.00,0.2146
1164.00,0.2126
1163.00,0.2107
1162.00,0.2088
1161.00,0.2069
1160.00,0.2050
1159.00,0.2031
1158.00,0.2012
1157.00,0.1993
1156.00,0.1973
1155.00,0.1953
1154.00,0.1933
1153.00,0.1914
1152.00,0.1895
1151.00,0.1877
1150.00,0.1860
1149.00,0.1843
1148.00,0.1827
1147.00,0.1812
1146.00,0.1797
1145.00,0.1783
1144.00,0.1770
1143.00,0.1757
1142.00,0.1745
1141.00,0.1733
1140.00,0.1722
1139.00,0.1711
1138.00,0.1700
1137.00,0.1689
1136.00,0.1679
1135.00,0.1669
1134.00,0.1658
1133.00,0.1647
1132.00,0.1636
1131.00,0.1625
1130.00,0.1614
1129.00,0.1603
1128.00,0.1593
1127.00,0.1583
1126.00,0.1573
1125.00,0.1562
1124.00,0.1552
1123.00,0.1543
1122.00,0.1534
1121.00,0.1526
1120.00,0.1518
1119.00,0.1510
1118.00,0.1502
1117.00,0.1494
1116.00,0.1487
1115.00,0.1480
1114.00,0.1473
1113.00,0.1467
1112.00,0.1460
1111.00,0.1454
1110.00,0.1448
1109.00,0.1442
1108.00,0.1435
1107.00,0.1430
1106.00,0.1425
1105.00,0.1420
1104.00,0.1415
1103.00,0.1411
1102.00,0.1407
1101.00,0.1402
1100.00,0.1397
1099.00,0.1392
1098.00,0.1387
1097.00,0.1382
1096.00,0.1377
1095.00,0.1373
1094.00,0.1369
1093.00,0.1364
1092.00,0.1360
1091.00,0.1355
1090.00,0.1350
1089.00,0.1345
1088.00,0.1340
1087.00,0.1334
1086.00,0.1328
1085.00,0.1321
1084.00,0.1314
1083.00,0.1308
1082.00,0.1302
1081.00,0.1296
1080.00,0.1291
1079.00,0.1286
1078.00,0.1281
1077.00,0.1276
1076.00,0.1272
1075.00,0.1268
1074.00,0.1264
1073.00,0.1261
1072.00,0.1257
1071.00,0.1255
1070.00,0.1252
1069.00,0.1250
1068.00,0.1248
1067.00,0.1247
1066.00,0.1246
1065.00,0.1244
1064.00,0.1242
1063.00,0.1240
1062.00,0.1239
1061.00,0.1237
1060.00,0.1236
1059.00,0.1235
1058.00,0.1233
1057.00,0.1232
1056.00,0.1229
1055.00,0.1227
1054.00,0.1226
1053.00,0.1224
1052.00,0.1223
1051.00,0.1222
1050.00,0.1221
1049.00,0.1220
1048.00,0.1219
1047.00,0.1218
1046.00,0.1217
1045.00,0.1216
1044.00,0.1214
1043.00,0.1213
1042.00,0.1213
1041.00,0.1214
1040.00,0.1215
1039.00,0.1216
1038.00,0.1218
1037.00,0.1220
1036.00,0.1223
1035.00,0.1227
1034.00,0.1232
1033.00,0.1238
1032.00,0.1245
1031.00,0.1254
1030.00,0.1266
1029.00,0.1281
1028.00,0.1302
1027.00,0.1331
1026.00,0.1365
1025.00,0.1401
1024.00,0.1430
1023.00,0.1443
1022.00,0.1440
1021.00,0.1427
1020.00,0.1414
1019.00,0.1407
1018.00,0.1408
1017.00,0.1416
1016.00,0.1430
1015.00,0.1446
1014.00,0.1467
1013.00,0.1489
1012.00,0.1515
1011.00,0.1544
1010.00,0.1575
1009.00,0.1608
1008.00,0.1644
1007.00,0.1683
1006.00,0.1725
1005.00,0.1770
1004.00,0.1819
1003.00,0.1872
1002.00,0.1926
1001.00,0.1983
1000.00,0.2040
999.00,0.2097
998.00,0.2152
997.00,0.2206
996.00,0.2257
995.00,0.2305
994.00,0.2348
993.00,0.2387
992.00,0.2421
991.00,0.2451
990.00,0.2476
989.00,0.2496
988.00,0.2511
987.00,0.2521
986.00,0.2527
985.00,0.2530
984.00,0.2530
983.00,0.2527
982.00,0.2522
981.00,0.2516
980.00,0.2509
979.00,0.2501
978.00,0.2491
977.00,0.2479
976.00,0.2466
975.00,0.2450
974.00,0.2432
973.00,0.2412
972.00,0.2389
971.00,0.2363
970.00,0.2335
969.00,0.2303
968.00,0.2269
967.00,0.2233
966.00,0.2195
965.00,0.2157
964.00,0.2120
963.00,0.2084
962.00,0.2050
961.00,0.2021
960.00,0.1997
959.00,0.1981
958.00,0.1977
957.00,0.1990
956.00,0.2025
955.00,0.2091
954.00,0.2192
953.00,0.2329
952.00,0.2495
951.00,0.2671
950.00,0.2829
949.00,0.2946
948.00,0.3006
947.00,0.3013
946.00,0.2981
945.00,0.2932
944.00,0.2880
943.00,0.2837
942.00,0.2805
941.00,0.2786
940.00,0.2781
939.00,0.2787
938.00,0.2803
937.00,0.2829
936.00,0.2864
935.00,0.2907
934.00,0.2957
933.00,0.3011
932.00,0.3069
931.00,0.3130
930.00,0.3191
929.00,0.3253
928.00,0.3314
927.00,0.3374
926.00,0.3432
925.00,0.3488
924.00,0.3542
923.00,0.3592
922.00,0.3638
921.00,0.3680
920.00,0.3718
919.00,0.3750
918.00,0.3776
917.00,0.3795
916.00,0.3809
915.00,0.3816
914.00,0.3817
913.00,0.3810
912.00,0.3797
911.00,0.3776
910.00,0.3746
909.00,0.3708
908.00,0.3662
907.00,0.3609
906.00,0.3547
905.00,0.3478
904.00,0.3401
903.00,0.3317
902.00,0.3226
901.00,0.3129
900.00,0.3026
899.00,0.2919
898.00,0.2808
897.00,0.2696
896.00,0.2582
895.00,0.2468
894.00,0.2355
893.00,0.2245
892.00,0.2138
891.00,0.2035
890.00,0.1937
889.00,0.1845
888.00,0.1760
887.00,0.1683
886.00,0.1618
885.00,0.1567
884.00,0.1540
883.00,0.1545
882.00,0.1598
881.00,0.1711
880.00,0.1887
879.00,0.2116
878.00,0.2374
877.00,0.2637
876.00,0.2885
875.00,0.3108
874.00,0.3300
873.00,0.3462
872.00,0.3600
871.00,0.3726
870.00,0.3858
869.00,0.4019
868.00,0.4239
867.00,0.4551
866.00,0.4978
865.00,0.5517
864.00,0.6121
863.00,0.6688
862.00,0.7100
861.00,0.7289
860.00,0.7273
859.00,0.7125
858.00,0.6917
857.00,0.6693
856.00,0.6476
855.00,0.6271
854.00,0.6080
853.00,0.5902
852.00,0.5735
851.00,0.5578
850.00,0.5427
849.00,0.5283
848.00,0.5147
847.00,0.5015
846.00,0.4889
845.00,0.4768
844.00,0.4651
843.00,0.4538
842.00,0.4429
841.00,0.4324
840.00,0.4222
839.00,0.4122
838.00,0.4023
837.00,0.3928
836.00,0.3835
835.00,0.3745
834.00,0.3657
833.00,0.3571
832.00,0.3487
831.00,0.3405
830.00,0.3326
829.00,0.3248
828.00,0.3173
827.00,0.3099
826.00,0.3027
825.00,0.2956
824.00,0.2887
823.00,0.2820
822.00,0.2755
821.00,0.2691
820.00,0.2628
819.00,0.2567
818.00,0.2508
817.00,0.2452
816.00,0.2397
815.00,0.2344
814.00,0.2290
813.00,0.2237
812.00,0.2185
811.00,0.2132
810.00,0.2081
809.00,0.2031
808.00,0.1982
807.00,0.1933
806.00,0.1885
805.00,0.1838
804.00,0.1791
803.00,0.1744
802.00,0.1697
801.00,0.1650
800.00,0.1604
799.00,0.1559
798.00,0.1517
797.00,0.1483
796.00,0.1467
795.00,0.1488
794.00,0.1572
793.00,0.1745
792.00,0.2016
791.00,0.2364
790.00,0.2746
789.00,0.3116
788.00,0.3439
787.00,0.3685
786.00,0.3819
785.00,0.3816
784.00,0.3691
783.00,0.3491
782.00,0.3271
781.00,0.3065
780.00,0.2887
779.00,0.2739
778.00,0.2614
777.00,0.2504
776.00,0.2405
775.00,0.2316
774.00,0.2238
773.00,0.2169
772.00,0.2109
771.00,0.2055
770.00,0.2006
769.00,0.1961
768.00,0.1920
767.00,0.1882
766.00,0.1847
765.00,0.1813
764.00,0.1780
763.00,0.1749
762.00,0.1720
761.00,0.1692
760.00,0.1665
759.00,0.1639
758.00,0.1614
757.00,0.1589
756.00,0.1565
755.00,0.1543
754.00,0.1521
753.00,0.1501
752.00,0.1480
751.00,0.1460
750.00,0.1441
749.00,0.1422
748.00,0.1403
747.00,0.1386
746.00,0.1370
745.00,0.1354
744.00,0.1339
743.00,0.1324
742.00,0.1309
741.00,0.1295
740.00,0.1282
739.00,0.1269
738.00,0.1258
737.00,0.1246
736.00,0.1233
735.00,0.1222
734.00,0.1211
733.00,0.1200
732.00,0.1190
731.00,0.1179
730.00,0.1168
729.00,0.1157
728.00,0.1148
727.00,0.1137
726.00,0.1127
725.00,0.1117
724.00,0.1106
723.00,0.1096
722.00,0.1086
721.00,0.1076
720.00,0.1066
719.00,0.1057
718.00,0.1048
717.00,0.1039
716.00,0.1029
715.00,0.1020
714.00,0.1009
713.00,0.0999
712.00,0.0988
711.00,0.0977
710.00,0.0967
709.00,0.0956
708.00,0.0946
707.00,0.0936
706.00,0.0926
705.00,0.0915
704.00,0.0904
703.00,0.0893
702.00,0.0882
701.00,0.0870
700.00,0.0859
699.00,0.0847
698.00,0.0835
697.00,0.0822
696.00,0.0809
695.00,0.0797
694.00,0.0785
693.00,0.0772
692.00,0.0760
691.00,0.0747
690.00,0.0736
689.00,0.0726
688.00,0.0715
687.00,0.0703
686.00,0.0692
685.00,0.0680
684.00,0.0678
683.00,0.0667
682.00,0.0656
681.00,0.0646
680.00,0.0635
679.00,0.0625
678.00,0.0615
677.00,0.0605
676.00,0.0594
675.00,0.0585
674.00,0.0577
673.00,0.0569
672.00,0.0562
671.00,0.0556
670.00,0.0551
669.00,0.0546
668.00,0.0562
667.00,0.0571
666.00,0.0559
665.00,0.0548
664.00,0.0546
663.00,0.0554
662.00,0.0569
661.00,0.0587
660.00,0.0610
659.00,0.0638
658.00,0.0671
657.00,0.0709
656.00,0.0753
655.00,0.0802
654.00,0.0857
653.00,0.0917
652.00,0.0982
651.00,0.1051
650.00,0.1121
649.00,0.1195
648.00,0.1273
647.00,0.1355
646.00,0.1439
645.00,0.1528
644.00,0.1625
643.00,0.1734
642.00,0.1856
641.00,0.2000
640.00,0.2169
639.00,0.2366
638.00,0.2589
637.00,0.2832
636.00,0.3088
635.00,0.3331
634.00,0.3521
633.00,0.3629
632.00,0.3637
631.00,0.3539
630.00,0.3353
629.00,0.3117
628.00,0.2871
627.00,0.2650
626.00,0.2482
625.00,0.2386
624.00,0.2370
623.00,0.2422
622.00,0.2523
621.00,0.2649
620.00,0.2781
619.00,0.2906
618.00,0.3023
617.00,0.3142
616.00,0.3268
615.00,0.3403
614.00,0.3544
613.00,0.3690
612.00,0.3839
611.00,0.3976
610.00,0.4084
609.00,0.4159
608.00,0.4199
607.00,0.4202
606.00,0.4170
605.00,0.4111
604.00,0.4034
603.00,0.3942
602.00,0.3838
601.00,0.3734
600.00,0.3643
599.00,0.3576
598.00,0.3549
597.00,0.3573
596.00,0.3640
595.00,0.3709
594.00,0.3723
593.00,0.3646
592.00,0.3482
591.00,0.3267
590.00,0.3046
589.00,0.2851
588.00,0.2693
587.00,0.2565
586.00,0.2460
585.00,0.2370
584.00,0.2293
583.00,0.2225
582.00,0.2164
581.00,0.2109
580.00,0.2059
579.00,0.2013
578.00,0.1969
577.00,0.1929
576.00,0.1893
575.00,0.1860
574.00,0.1828
573.00,0.1800
572.00,0.1775
571.00,0.1752
570.00,0.1730
569.00,0.1710
568.00,0.1692
567.00,0.1675
566.00,0.1658
565.00,0.1640
564.00,0.1623
563.00,0.1608
562.00,0.1593
561.00,0.1577
560.00,0.1562
559.00,0.1548
558.00,0.1536
557.00,0.1524
556.00,0.1512
555.00,0.1499
554.00,0.1486
553.00,0.1472
552.00,0.1458
551.00,0.1444
550.00,0.1431
549.00,0.1417
548.00,0.1404
547.00,0.1389
546.00,0.1375
545.00,0.1361
544.00,0.1348
543.00,0.1336
542.00,0.1324
541.00,0.1312
540.00,0.1300
539.00,0.1289
538.00,0.1277
537.00,0.1265
536.00,0.1252
535.00,0.1239
534.00,0.1227
533.00,0.1216
532.00,0.1206
531.00,0.1197
530.00,0.1187
529.00,0.1176
528.00,0.1164
527.00,0.1153
526.00,0.1143
525.00,0.1136
524.00,0.1128
523.00,0.1121
522.00,0.1112
521.00,0.1103
520.00,0.1096
519.00,0.1090
518.00,0.1084
517.00,0.1077
516.00,0.1069
515.00,0.1061
514.00,0.1053
513.00,0.1047
512.00,0.1041
511.00,0.1037
510.00,0.1031
509.00,0.1024
508.00,0.1017
507.00,0.1011
506.00,0.1005
505.00,0.0998
504.00,0.0991
503.00,0.0985
502.00,0.0979
501.00,0.0973
500.00,0.0966
499.00,0.0960
498.00,0.0955
497.00,0.0951
496.00,0.0947
495.00,0.0944
494.00,0.0943
493.00,0.0942
492.00,0.0940
491.00,0.0936
490.00,0.0931
489.00,0.0926
488.00,0.0923
487.00,0.0922
486.00,0.0919
485.00,0.0915
484.00,0.0911
483.00,0.0911
482.00,0.0913
481.00,0.0913
480.00,0.0912
479.00,0.0911
478.00,0.0910
477.00,0.0907
476.00,0.0901
475.00,0.0894
474.00,0.0888
473.00,0.0885
472.00,0.0884
471.00,0.0883
470.00,0.0880
469.00,0.0876
468.00,0.0870
467.00,0.0865
466.00,0.0861
465.00,0.0857
464.00,0.0854
463.00,0.0852
462.00,0.0849
461.00,0.0840
460.00,0.0825
459.00,0.0810
458.00,0.0800
457.00,0.0798
456.00,0.0798
455.00,0.0798
454.00,0.0796
453.00,0.0792
452.00,0.0787
451.00,0.0782
450.00,0.0778
449.00,0.0773
448.00,0.0768
447.00,0.0762
446.00,0.0756
445.00,0.0749
444.00,0.0740
443.00,0.0732
442.00,0.0722
441.00,0.0711
440.00,0.0699
439.00,0.0689
438.00,0.0681
437.00,0.0674
436.00,0.0668
435.00,0.0661
434.00,0.0656
433.00,0.0651
432.00,0.0647
431.00,0.0646
430.00,0.0646
429.00,0.0645
428.00,0.0641
427.00,0.0639
426.00,0.0641
425.00,0.0647
424.00,0.0654
423.00,0.0661
422.00,0.0667
421.00,0.0679
420.00,0.0710
419.00,0.0772
418.00,0.0850
417.00,0.0931
416.00,0.1019
415.00,0.1127
414.00,0.1264
413.00,0.1435
412.00,0.1640
411.00,0.1878
410.00,0.2135
409.00,0.2394
408.00,0.2637
407.00,0.2841
406.00,0.2977
405.00,0.3046
404.00,0.3061
403.00,0.3027
402.00,0.2946
401.00,0.2831
400.00,0.2702
