Created as New Dataset,Sample 839 By YargerLab Date Saturday, April 18 2026
cm-1,A
4000.00,0.1115
3999.00,0.1118
3998.00,0.1121
3997.00,0.1124
3996.00,0.1128
3995.00,0.1134
3994.00,0.1141
3993.00,0.1150
3992.00,0.1160
3991.00,0.1169
3990.00,0.1176
3989.00,0.1181
3988.00,0.1183
3987.00,0.1182
3986.00,0.1179
3985.00,0.1175
3984.00,0.1168
3983.00,0.1162
3982.00,0.1156
3981.00,0.1151
3980.00,0.1147
3979.00,0.1144
3978.00,0.1141
3977.00,0.1139
3976.00,0.1137
3975.00,0.1133
3974.00,0.1130
3973.00,0.1127
3972.00,0.1123
3971.00,0.1121
3970.00,0.1119
3969.00,0.1118
3968.00,0.1117
3967.00,0.1117
3966.00,0.1117
3965.00,0.1117
3964.00,0.1117
3963.00,0.1119
3962.00,0.1121
3961.00,0.1124
3960.00,0.1128
3959.00,0.1132
3958.00,0.1134
3957.00,0.1135
3956.00,0.1135
3955.00,0.1133
3954.00,0.1130
3953.00,0.1127
3952.00,0.1125
3951.00,0.1124
3950.00,0.1123
3949.00,0.1122
3948.00,0.1120
3947.00,0.1119
3946.00,0.1118
3945.00,0.1118
3944.00,0.1119
3943.00,0.1121
3942.00,0.1123
3941.00,0.1124
3940.00,0.1125
3939.00,0.1124
3938.00,0.1123
3937.00,0.1120
3936.00,0.1117
3935.00,0.1114
3934.00,0.1112
3933.00,0.1110
3932.00,0.1108
3931.00,0.1107
3930.00,0.1105
3929.00,0.1103
3928.00,0.1101
3927.00,0.1099
3926.00,0.1098
3925.00,0.1096
3924.00,0.1094
3923.00,0.1092
3922.00,0.1091
3921.00,0.1090
3920.00,0.1090
3919.00,0.1090
3918.00,0.1090
3917.00,0.1090
3916.00,0.1090
3915.00,0.1090
3914.00,0.1090
3913.00,0.1091
3912.00,0.1092
3911.00,0.1092
3910.00,0.1092
3909.00,0.1092
3908.00,0.1091
3907.00,0.1091
3906.00,0.1090
3905.00,0.1090
3904.00,0.1091
3903.00,0.1092
3902.00,0.1094
3901.00,0.1097
3900.00,0.1101
3899.00,0.1103
3898.00,0.1104
3897.00,0.1104
3896.00,0.1104
3895.00,0.1104
3894.00,0.1105
3893.00,0.1105
3892.00,0.1106
3891.00,0.1105
3890.00,0.1102
3889.00,0.1099
3888.00,0.1098
3887.00,0.1099
3886.00,0.1099
3885.00,0.1098
3884.00,0.1096
3883.00,0.1097
3882.00,0.1099
3881.00,0.1101
3880.00,0.1101
3879.00,0.1099
3878.00,0.1096
3877.00,0.1095
3876.00,0.1095
3875.00,0.1094
3874.00,0.1091
3873.00,0.1088
3872.00,0.1087
3871.00,0.1087
3870.00,0.1088
3869.00,0.1087
3868.00,0.1085
3867.00,0.1085
3866.00,0.1088
3865.00,0.1090
3864.00,0.1091
3863.00,0.1092
3862.00,0.1093
3861.00,0.1095
3860.00,0.1097
3859.00,0.1099
3858.00,0.1100
3857.00,0.1100
3856.00,0.1102
3855.00,0.1108
3854.00,0.1119
3853.00,0.1127
3852.00,0.1131
3851.00,0.1135
3850.00,0.1140
3849.00,0.1145
3848.00,0.1146
3847.00,0.1145
3846.00,0.1141
3845.00,0.1136
3844.00,0.1131
3843.00,0.1124
3842.00,0.1117
3841.00,0.1111
3840.00,0.1107
3839.00,0.1104
3838.00,0.1102
3837.00,0.1100
3836.00,0.1099
3835.00,0.1100
3834.00,0.1103
3833.00,0.1106
3832.00,0.1108
3831.00,0.1108
3830.00,0.1108
3829.00,0.1107
3828.00,0.1107
3827.00,0.1105
3826.00,0.1102
3825.00,0.1098
3824.00,0.1095
3823.00,0.1094
3822.00,0.1095
3821.00,0.1094
3820.00,0.1091
3819.00,0.1089
3818.00,0.1090
3817.00,0.1093
3816.00,0.1094
3815.00,0.1094
3814.00,0.1094
3813.00,0.1095
3812.00,0.1097
3811.00,0.1098
3810.00,0.1098
3809.00,0.1100
3808.00,0.1104
3807.00,0.1108
3806.00,0.1110
3805.00,0.1111
3804.00,0.1113
3803.00,0.1116
3802.00,0.1118
3801.00,0.1117
3800.00,0.1114
3799.00,0.1112
3798.00,0.1113
3797.00,0.1113
3796.00,0.1112
3795.00,0.1110
3794.00,0.1107
3793.00,0.1105
3792.00,0.1104
3791.00,0.1102
3790.00,0.1100
3789.00,0.1098
3788.00,0.1097
3787.00,0.1097
3786.00,0.1097
3785.00,0.1097
3784.00,0.1096
3783.00,0.1096
3782.00,0.1095
3781.00,0.1095
3780.00,0.1094
3779.00,0.1093
3778.00,0.1092
3777.00,0.1091
3776.00,0.1090
3775.00,0.1090
3774.00,0.1089
3773.00,0.1087
3772.00,0.1086
3771.00,0.1086
3770.00,0.1084
3769.00,0.1082
3768.00,0.1081
3767.00,0.1081
3766.00,0.1081
3765.00,0.1080
3764.00,0.1079
3763.00,0.1077
3762.00,0.1076
3761.00,0.1076
3760.00,0.1076
3759.00,0.1075
3758.00,0.1074
3757.00,0.1073
3756.00,0.1070
3755.00,0.1068
3754.00,0.1065
3753.00,0.1062
3752.00,0.1060
3751.00,0.1060
3750.00,0.1059
3749.00,0.1057
3748.00,0.1056
3747.00,0.1057
3746.00,0.1059
3745.00,0.1063
3744.00,0.1064
3743.00,0.1063
3742.00,0.1063
3741.00,0.1065
3740.00,0.1068
3739.00,0.1068
3738.00,0.1067
3737.00,0.1066
3736.00,0.1066
3735.00,0.1066
3734.00,0.1066
3733.00,0.1067
3732.00,0.1068
3731.00,0.1069
3730.00,0.1070
3729.00,0.1072
3728.00,0.1074
3727.00,0.1076
3726.00,0.1077
3725.00,0.1078
3724.00,0.1079
3723.00,0.1080
3722.00,0.1080
3721.00,0.1079
3720.00,0.1078
3719.00,0.1077
3718.00,0.1076
3717.00,0.1074
3716.00,0.1073
3715.00,0.1071
3714.00,0.1070
3713.00,0.1070
3712.00,0.1071
3711.00,0.1071
3710.00,0.1071
3709.00,0.1071
3708.00,0.1071
3707.00,0.1071
3706.00,0.1071
3705.00,0.1071
3704.00,0.1071
3703.00,0.1071
3702.00,0.1071
3701.00,0.1071
3700.00,0.1070
3699.00,0.1069
3698.00,0.1069
3697.00,0.1070
3696.00,0.1069
3695.00,0.1068
3694.00,0.1067
3693.00,0.1065
3692.00,0.1063
3691.00,0.1061
3690.00,0.1061
3689.00,0.1062
3688.00,0.1063
3687.00,0.1064
3686.00,0.1066
3685.00,0.1069
3684.00,0.1071
3683.00,0.1071
3682.00,0.1070
3681.00,0.1069
3680.00,0.1066
3679.00,0.1064
3678.00,0.1062
3677.00,0.1064
3676.00,0.1067
3675.00,0.1069
3674.00,0.1068
3673.00,0.1068
3672.00,0.1071
3671.00,0.1074
3670.00,0.1075
3669.00,0.1074
3668.00,0.1072
3667.00,0.1072
3666.00,0.1072
3665.00,0.1073
3664.00,0.1072
3663.00,0.1072
3662.00,0.1071
3661.00,0.1071
3660.00,0.1071
3659.00,0.1073
3658.00,0.1075
3657.00,0.1079
3656.00,0.1081
3655.00,0.1082
3654.00,0.1081
3653.00,0.1080
3652.00,0.1079
3651.00,0.1077
3650.00,0.1075
3649.00,0.1073
3648.00,0.1071
3647.00,0.1070
3646.00,0.1070
3645.00,0.1070
3644.00,0.1071
3643.00,0.1072
3642.00,0.1072
3641.00,0.1071
3640.00,0.1070
3639.00,0.1069
3638.00,0.1067
3637.00,0.1066
3636.00,0.1065
3635.00,0.1064
3634.00,0.1062
3633.00,0.1059
3632.00,0.1057
3631.00,0.1057
3630.00,0.1061
3629.00,0.1066
3628.00,0.1070
3627.00,0.1072
3626.00,0.1075
3625.00,0.1077
3624.00,0.1077
3623.00,0.1075
3622.00,0.1072
3621.00,0.1069
3620.00,0.1067
3619.00,0.1065
3618.00,0.1063
3617.00,0.1062
3616.00,0.1062
3615.00,0.1062
3614.00,0.1062
3613.00,0.1062
3612.00,0.1061
3611.00,0.1061
3610.00,0.1062
3609.00,0.1063
3608.00,0.1063
3607.00,0.1063
3606.00,0.1063
3605.00,0.1062
3604.00,0.1063
3603.00,0.1063
3602.00,0.1063
3601.00,0.1064
3600.00,0.1064
3599.00,0.1065
3598.00,0.1066
3597.00,0.1066
3596.00,0.1067
3595.00,0.1068
3594.00,0.1068
3593.00,0.1067
3592.00,0.1066
3591.00,0.1064
3590.00,0.1063
3589.00,0.1063
3588.00,0.1064
3587.00,0.1064
3586.00,0.1064
3585.00,0.1064
3584.00,0.1065
3583.00,0.1067
3582.00,0.1069
3581.00,0.1071
3580.00,0.1073
3579.00,0.1075
3578.00,0.1077
3577.00,0.1079
3576.00,0.1081
3575.00,0.1083
3574.00,0.1084
3573.00,0.1083
3572.00,0.1082
3571.00,0.1080
3570.00,0.1079
3569.00,0.1080
3568.00,0.1081
3567.00,0.1083
3566.00,0.1085
3565.00,0.1086
3564.00,0.1088
3563.00,0.1089
3562.00,0.1090
3561.00,0.1090
3560.00,0.1090
3559.00,0.1089
3558.00,0.1087
3557.00,0.1085
3556.00,0.1082
3555.00,0.1081
3554.00,0.1079
3553.00,0.1078
3552.00,0.1077
3551.00,0.1076
3550.00,0.1075
3549.00,0.1074
3548.00,0.1074
3547.00,0.1073
3546.00,0.1073
3545.00,0.1073
3544.00,0.1073
3543.00,0.1073
3542.00,0.1074
3541.00,0.1075
3540.00,0.1075
3539.00,0.1075
3538.00,0.1075
3537.00,0.1074
3536.00,0.1074
3535.00,0.1074
3534.00,0.1074
3533.00,0.1074
3532.00,0.1074
3531.00,0.1074
3530.00,0.1074
3529.00,0.1074
3528.00,0.1073
3527.00,0.1072
3526.00,0.1071
3525.00,0.1070
3524.00,0.1069
3523.00,0.1069
3522.00,0.1068
3521.00,0.1068
3520.00,0.1068
3519.00,0.1069
3518.00,0.1069
3517.00,0.1070
3516.00,0.1070
3515.00,0.1071
3514.00,0.1071
3513.00,0.1071
3512.00,0.1070
3511.00,0.1069
3510.00,0.1068
3509.00,0.1067
3508.00,0.1065
3507.00,0.1064
3506.00,0.1064
3505.00,0.1063
3504.00,0.1063
3503.00,0.1063
3502.00,0.1063
3501.00,0.1062
3500.00,0.1062
3499.00,0.1062
3498.00,0.1061
3497.00,0.1061
3496.00,0.1061
3495.00,0.1061
3494.00,0.1061
3493.00,0.1061
3492.00,0.1062
3491.00,0.1062
3490.00,0.1062
3489.00,0.1062
3488.00,0.1062
3487.00,0.1062
3486.00,0.1061
3485.00,0.1061
3484.00,0.1061
3483.00,0.1061
3482.00,0.1061
3481.00,0.1061
3480.00,0.1061
3479.00,0.1062
3478.00,0.1062
3477.00,0.1063
3476.00,0.1063
3475.00,0.1064
3474.00,0.1064
3473.00,0.1064
3472.00,0.1063
3471.00,0.1063
3470.00,0.1063
3469.00,0.1063
3468.00,0.1062
3467.00,0.1062
3466.00,0.1062
3465.00,0.1062
3464.00,0.1062
3463.00,0.1062
3462.00,0.1062
3461.00,0.1062
3460.00,0.1062
3459.00,0.1063
3458.00,0.1063
3457.00,0.1062
3456.00,0.1062
3455.00,0.1062
3454.00,0.1062
3453.00,0.1061
3452.00,0.1061
3451.00,0.1060
3450.00,0.1060
3449.00,0.1060
3448.00,0.1060
3447.00,0.1060
3446.00,0.1060
3445.00,0.1060
3444.00,0.1060
3443.00,0.1060
3442.00,0.1060
3441.00,0.1060
3440.00,0.1060
3439.00,0.1059
3438.00,0.1059
3437.00,0.1059
3436.00,0.1059
3435.00,0.1059
3434.00,0.1059
3433.00,0.1059
3432.00,0.1058
3431.00,0.1058
3430.00,0.1058
3429.00,0.1058
3428.00,0.1058
3427.00,0.1058
3426.00,0.1058
3425.00,0.1058
3424.00,0.1059
3423.00,0.1061
3422.00,0.1062
3421.00,0.1064
3420.00,0.1066
3419.00,0.1067
3418.00,0.1068
3417.00,0.1068
3416.00,0.1068
3415.00,0.1067
3414.00,0.1066
3413.00,0.1065
3412.00,0.1064
3411.00,0.1063
3410.00,0.1062
3409.00,0.1061
3408.00,0.1061
3407.00,0.1060
3406.00,0.1060
3405.00,0.1059
3404.00,0.1059
3403.00,0.1059
3402.00,0.1059
3401.00,0.1060
3400.00,0.1060
3399.00,0.1060
3398.00,0.1060
3397.00,0.1060
3396.00,0.1060
3395.00,0.1060
3394.00,0.1060
3393.00,0.1059
3392.00,0.1059
3391.00,0.1058
3390.00,0.1058
3389.00,0.1058
3388.00,0.1058
3387.00,0.1057
3386.00,0.1057
3385.00,0.1057
3384.00,0.1057
3383.00,0.1056
3382.00,0.1056
3381.00,0.1056
3380.00,0.1056
3379.00,0.1056
3378.00,0.1056
3377.00,0.1057
3376.00,0.1057
3375.00,0.1057
3374.00,0.1057
3373.00,0.1057
3372.00,0.1057
3371.00,0.1058
3370.00,0.1058
3369.00,0.1058
3368.00,0.1059
3367.00,0.1059
3366.00,0.1059
3365.00,0.1060
3364.00,0.1060
3363.00,0.1060
3362.00,0.1060
3361.00,0.1060
3360.00,0.1060
3359.00,0.1060
3358.00,0.1060
3357.00,0.1060
3356.00,0.1059
3355.00,0.1059
3354.00,0.1058
3353.00,0.1058
3352.00,0.1058
3351.00,0.1057
3350.00,0.1057
3349.00,0.1057
3348.00,0.1057
3347.00,0.1056
3346.00,0.1056
3345.00,0.1056
3344.00,0.1056
3343.00,0.1056
3342.00,0.1056
3341.00,0.1056
3340.00,0.1055
3339.00,0.1055
3338.00,0.1055
3337.00,0.1056
3336.00,0.1056
3335.00,0.1056
3334.00,0.1057
3333.00,0.1057
3332.00,0.1057
3331.00,0.1056
3330.00,0.1056
3329.00,0.1056
3328.00,0.1056
3327.00,0.1056
3326.00,0.1056
3325.00,0.1056
3324.00,0.1056
3323.00,0.1056
3322.00,0.1056
3321.00,0.1056
3320.00,0.1056
3319.00,0.1055
3318.00,0.1055
3317.00,0.1055
3316.00,0.1055
3315.00,0.1055
3314.00,0.1055
3313.00,0.1055
3312.00,0.1054
3311.00,0.1054
3310.00,0.1055
3309.00,0.1055
3308.00,0.1055
3307.00,0.1055
3306.00,0.1055
3305.00,0.1055
3304.00,0.1055
3303.00,0.1055
3302.00,0.1055
3301.00,0.1055
3300.00,0.1055
3299.00,0.1056
3298.00,0.1056
3297.00,0.1056
3296.00,0.1056
3295.00,0.1056
3294.00,0.1056
3293.00,0.1056
3292.00,0.1056
3291.00,0.1056
3290.00,0.1056
3289.00,0.1056
3288.00,0.1056
3287.00,0.1056
3286.00,0.1055
3285.00,0.1055
3284.00,0.1055
3283.00,0.1055
3282.00,0.1054
3281.00,0.1054
3280.00,0.1054
3279.00,0.1054
3278.00,0.1054
3277.00,0.1054
3276.00,0.1054
3275.00,0.1054
3274.00,0.1054
3273.00,0.1054
3272.00,0.1054
3271.00,0.1055
3270.00,0.1055
3269.00,0.1055
3268.00,0.1056
3267.00,0.1056
3266.00,0.1056
3265.00,0.1057
3264.00,0.1057
3263.00,0.1056
3262.00,0.1055
3261.00,0.1054
3260.00,0.1053
3259.00,0.1052
3258.00,0.1052
3257.00,0.1052
3256.00,0.1051
3255.00,0.1051
3254.00,0.1050
3253.00,0.1050
3252.00,0.1050
3251.00,0.1050
3250.00,0.1051
3249.00,0.1051
3248.00,0.1051
3247.00,0.1051
3246.00,0.1051
3245.00,0.1051
3244.00,0.1051
3243.00,0.1051
3242.00,0.1051
3241.00,0.1051
3240.00,0.1050
3239.00,0.1050
3238.00,0.1049
3237.00,0.1049
3236.00,0.1048
3235.00,0.1048
3234.00,0.1048
3233.00,0.1047
3232.00,0.1047
3231.00,0.1047
3230.00,0.1047
3229.00,0.1047
3228.00,0.1048
3227.00,0.1049
3226.00,0.1050
3225.00,0.1052
3224.00,0.1054
3223.00,0.1059
3222.00,0.1065
3221.00,0.1072
3220.00,0.1080
3219.00,0.1085
3218.00,0.1088
3217.00,0.1087
3216.00,0.1084
3215.00,0.1079
3214.00,0.1074
3213.00,0.1069
3212.00,0.1065
3211.00,0.1062
3210.00,0.1060
3209.00,0.1058
3208.00,0.1056
3207.00,0.1054
3206.00,0.1053
3205.00,0.1052
3204.00,0.1051
3203.00,0.1049
3202.00,0.1049
3201.00,0.1048
3200.00,0.1048
3199.00,0.1048
3198.00,0.1048
3197.00,0.1048
3196.00,0.1048
3195.00,0.1048
3194.00,0.1047
3193.00,0.1047
3192.00,0.1047
3191.00,0.1048
3190.00,0.1050
3189.00,0.1052
3188.00,0.1055
3187.00,0.1056
3186.00,0.1057
3185.00,0.1056
3184.00,0.1055
3183.00,0.1054
3182.00,0.1053
3181.00,0.1052
3180.00,0.1051
3179.00,0.1051
3178.00,0.1051
3177.00,0.1051
3176.00,0.1051
3175.00,0.1052
3174.00,0.1053
3173.00,0.1055
3172.00,0.1058
3171.00,0.1061
3170.00,0.1064
3169.00,0.1065
3168.00,0.1064
3167.00,0.1062
3166.00,0.1059
3165.00,0.1056
3164.00,0.1054
3163.00,0.1052
3162.00,0.1051
3161.00,0.1050
3160.00,0.1049
3159.00,0.1048
3158.00,0.1047
3157.00,0.1047
3156.00,0.1046
3155.00,0.1045
3154.00,0.1045
3153.00,0.1044
3152.00,0.1044
3151.00,0.1044
3150.00,0.1044
3149.00,0.1044
3148.00,0.1044
3147.00,0.1044
3146.00,0.1045
3145.00,0.1044
3144.00,0.1044
3143.00,0.1044
3142.00,0.1043
3141.00,0.1042
3140.00,0.1042
3139.00,0.1042
3138.00,0.1042
3137.00,0.1042
3136.00,0.1042
3135.00,0.1042
3134.00,0.1042
3133.00,0.1042
3132.00,0.1042
3131.00,0.1042
3130.00,0.1042
3129.00,0.1042
3128.00,0.1042
3127.00,0.1041
3126.00,0.1039
3125.00,0.1037
3124.00,0.1035
3123.00,0.1034
3122.00,0.1032
3121.00,0.1031
3120.00,0.1030
3119.00,0.1029
3118.00,0.1029
3117.00,0.1029
3116.00,0.1029
3115.00,0.1028
3114.00,0.1028
3113.00,0.1027
3112.00,0.1027
3111.00,0.1027
3110.00,0.1026
3109.00,0.1026
3108.00,0.1026
3107.00,0.1027
3106.00,0.1028
3105.00,0.1030
3104.00,0.1033
3103.00,0.1038
3102.00,0.1046
3101.00,0.1057
3100.00,0.1072
3099.00,0.1091
3098.00,0.1111
3097.00,0.1127
3096.00,0.1135
3095.00,0.1137
3094.00,0.1133
3093.00,0.1131
3092.00,0.1135
3091.00,0.1148
3090.00,0.1173
3089.00,0.1204
3088.00,0.1233
3087.00,0.1254
3086.00,0.1264
3085.00,0.1264
3084.00,0.1259
3083.00,0.1249
3082.00,0.1235
3081.00,0.1216
3080.00,0.1195
3079.00,0.1172
3078.00,0.1151
3077.00,0.1133
3076.00,0.1118
3075.00,0.1105
3074.00,0.1097
3073.00,0.1094
3072.00,0.1102
3071.00,0.1122
3070.00,0.1152
3069.00,0.1188
3068.00,0.1226
3067.00,0.1276
3066.00,0.1350
3065.00,0.1454
3064.00,0.1578
3063.00,0.1690
3062.00,0.1763
3061.00,0.1786
3060.00,0.1775
3059.00,0.1753
3058.00,0.1741
3057.00,0.1747
3056.00,0.1769
3055.00,0.1801
3054.00,0.1841
3053.00,0.1890
3052.00,0.1951
3051.00,0.2015
3050.00,0.2063
3049.00,0.2072
3048.00,0.2029
3047.00,0.1944
3046.00,0.1840
3045.00,0.1741
3044.00,0.1662
3043.00,0.1606
3042.00,0.1568
3041.00,0.1539
3040.00,0.1508
3039.00,0.1473
3038.00,0.1434
3037.00,0.1400
3036.00,0.1380
3035.00,0.1383
3034.00,0.1410
3033.00,0.1459
3032.00,0.1517
3031.00,0.1571
3030.00,0.1610
3029.00,0.1628
3028.00,0.1625
3027.00,0.1606
3026.00,0.1576
3025.00,0.1543
3024.00,0.1510
3023.00,0.1481
3022.00,0.1455
3021.00,0.1431
3020.00,0.1407
3019.00,0.1383
3018.00,0.1359
3017.00,0.1337
3016.00,0.1319
3015.00,0.1305
3014.00,0.1295
3013.00,0.1288
3012.00,0.1284
3011.00,0.1284
3010.00,0.1288
3009.00,0.1299
3008.00,0.1321
3007.00,0.1354
3006.00,0.1395
3005.00,0.1438
3004.00,0.1471
3003.00,0.1485
3002.00,0.1478
3001.00,0.1455
3000.00,0.1425
2999.00,0.1394
2998.00,0.1367
2997.00,0.1344
2996.00,0.1326
2995.00,0.1310
2994.00,0.1296
2993.00,0.1284
2992.00,0.1272
2991.00,0.1261
2990.00,0.1252
2989.00,0.1243
2988.00,0.1236
2987.00,0.1231
2986.00,0.1227
2985.00,0.1224
2984.00,0.1222
2983.00,0.1220
2982.00,0.1218
2981.00,0.1215
2980.00,0.1212
2979.00,0.1209
2978.00,0.1206
2977.00,0.1202
2976.00,0.1199
2975.00,0.1197
2974.00,0.1195
2973.00,0.1196
2972.00,0.1200
2971.00,0.1205
2970.00,0.1212
2969.00,0.1219
2968.00,0.1228
2967.00,0.1236
2966.00,0.1244
2965.00,0.1251
2964.00,0.1253
2963.00,0.1252
2962.00,0.1248
2961.00,0.1242
2960.00,0.1236
2959.00,0.1230
2958.00,0.1226
2957.00,0.1223
2956.00,0.1223
2955.00,0.1224
2954.00,0.1225
2953.00,0.1225
2952.00,0.1222
2951.00,0.1220
2950.00,0.1220
2949.00,0.1224
2948.00,0.1230
2947.00,0.1235
2946.00,0.1236
2945.00,0.1232
2944.00,0.1223
2943.00,0.1213
2942.00,0.1204
2941.00,0.1197
2940.00,0.1193
2939.00,0.1192
2938.00,0.1193
2937.00,0.1196
2936.00,0.1200
2935.00,0.1202
2934.00,0.1203
2933.00,0.1201
2932.00,0.1198
2931.00,0.1195
2930.00,0.1192
2929.00,0.1190
2928.00,0.1190
2927.00,0.1190
2926.00,0.1190
2925.00,0.1190
2924.00,0.1187
2923.00,0.1183
2922.00,0.1176
2921.00,0.1170
2920.00,0.1163
2919.00,0.1157
2918.00,0.1152
2917.00,0.1149
2916.00,0.1145
2915.00,0.1143
2914.00,0.1140
2913.00,0.1138
2912.00,0.1135
2911.00,0.1133
2910.00,0.1131
2909.00,0.1129
2908.00,0.1128
2907.00,0.1126
2906.00,0.1125
2905.00,0.1125
2904.00,0.1125
2903.00,0.1125
2902.00,0.1126
2901.00,0.1127
2900.00,0.1129
2899.00,0.1130
2898.00,0.1130
2897.00,0.1129
2896.00,0.1127
2895.00,0.1125
2894.00,0.1124
2893.00,0.1122
2892.00,0.1122
2891.00,0.1121
2890.00,0.1120
2889.00,0.1120
2888.00,0.1121
2887.00,0.1122
2886.00,0.1124
2885.00,0.1125
2884.00,0.1125
2883.00,0.1124
2882.00,0.1123
2881.00,0.1121
2880.00,0.1120
2879.00,0.1118
2878.00,0.1116
2877.00,0.1115
2876.00,0.1114
2875.00,0.1113
2874.00,0.1113
2873.00,0.1112
2872.00,0.1112
2871.00,0.1112
2870.00,0.1111
2869.00,0.1111
2868.00,0.1110
2867.00,0.1109
2866.00,0.1108
2865.00,0.1107
2864.00,0.1107
2863.00,0.1106
2862.00,0.1106
2861.00,0.1106
2860.00,0.1106
2859.00,0.1107
2858.00,0.1108
2857.00,0.1110
2856.00,0.1111
2855.00,0.1113
2854.00,0.1115
2853.00,0.1117
2852.00,0.1120
2851.00,0.1123
2850.00,0.1127
2849.00,0.1130
2848.00,0.1133
2847.00,0.1134
2846.00,0.1135
2845.00,0.1134
2844.00,0.1132
2843.00,0.1129
2842.00,0.1126
2841.00,0.1123
2840.00,0.1122
2839.00,0.1122
2838.00,0.1124
2837.00,0.1128
2836.00,0.1132
2835.00,0.1135
2834.00,0.1136
2833.00,0.1133
2832.00,0.1129
2831.00,0.1124
2830.00,0.1120
2829.00,0.1116
2828.00,0.1113
2827.00,0.1111
2826.00,0.1109
2825.00,0.1107
2824.00,0.1106
2823.00,0.1106
2822.00,0.1105
2821.00,0.1105
2820.00,0.1104
2819.00,0.1104
2818.00,0.1103
2817.00,0.1102
2816.00,0.1102
2815.00,0.1101
2814.00,0.1100
2813.00,0.1100
2812.00,0.1099
2811.00,0.1099
2810.00,0.1100
2809.00,0.1100
2808.00,0.1101
2807.00,0.1101
2806.00,0.1102
2805.00,0.1101
2804.00,0.1101
2803.00,0.1099
2802.00,0.1098
2801.00,0.1097
2800.00,0.1095
2799.00,0.1094
2798.00,0.1094
2797.00,0.1093
2796.00,0.1092
2795.00,0.1092
2794.00,0.1092
2793.00,0.1092
2792.00,0.1093
2791.00,0.1094
2790.00,0.1095
2789.00,0.1097
2788.00,0.1098
2787.00,0.1099
2786.00,0.1099
2785.00,0.1099
2784.00,0.1098
2783.00,0.1097
2782.00,0.1096
2781.00,0.1095
2780.00,0.1094
2779.00,0.1092
2778.00,0.1090
2777.00,0.1088
2776.00,0.1086
2775.00,0.1085
2774.00,0.1085
2773.00,0.1085
2772.00,0.1085
2771.00,0.1085
2770.00,0.1085
2769.00,0.1085
2768.00,0.1085
2767.00,0.1085
2766.00,0.1085
2765.00,0.1085
2764.00,0.1085
2763.00,0.1085
2762.00,0.1085
2761.00,0.1086
2760.00,0.1087
2759.00,0.1088
2758.00,0.1090
2757.00,0.1091
2756.00,0.1093
2755.00,0.1094
2754.00,0.1095
2753.00,0.1095
2752.00,0.1094
2751.00,0.1094
2750.00,0.1094
2749.00,0.1093
2748.00,0.1092
2747.00,0.1092
2746.00,0.1092
2745.00,0.1093
2744.00,0.1095
2743.00,0.1098
2742.00,0.1100
2741.00,0.1101
2740.00,0.1102
2739.00,0.1101
2738.00,0.1100
2737.00,0.1100
2736.00,0.1100
2735.00,0.1101
2734.00,0.1102
2733.00,0.1103
2732.00,0.1104
2731.00,0.1105
2730.00,0.1105
2729.00,0.1104
2728.00,0.1102
2727.00,0.1099
2726.00,0.1097
2725.00,0.1094
2724.00,0.1093
2723.00,0.1091
2722.00,0.1091
2721.00,0.1090
2720.00,0.1091
2719.00,0.1093
2718.00,0.1095
2717.00,0.1097
2716.00,0.1099
2715.00,0.1100
2714.00,0.1100
2713.00,0.1098
2712.00,0.1097
2711.00,0.1095
2710.00,0.1093
2709.00,0.1092
2708.00,0.1091
2707.00,0.1090
2706.00,0.1089
2705.00,0.1088
2704.00,0.1087
2703.00,0.1086
2702.00,0.1086
2701.00,0.1085
2700.00,0.1084
2699.00,0.1083
2698.00,0.1082
2697.00,0.1082
2696.00,0.1082
2695.00,0.1081
2694.00,0.1081
2693.00,0.1080
2692.00,0.1080
2691.00,0.1080
2690.00,0.1079
2689.00,0.1079
2688.00,0.1079
2687.00,0.1079
2686.00,0.1079
2685.00,0.1079
2684.00,0.1079
2683.00,0.1080
2682.00,0.1080
2681.00,0.1079
2680.00,0.1079
2679.00,0.1080
2678.00,0.1080
2677.00,0.1081
2676.00,0.1082
2675.00,0.1083
2674.00,0.1085
2673.00,0.1086
2672.00,0.1087
2671.00,0.1088
2670.00,0.1089
2669.00,0.1089
2668.00,0.1089
2667.00,0.1088
2666.00,0.1088
2665.00,0.1087
2664.00,0.1086
2663.00,0.1085
2662.00,0.1085
2661.00,0.1084
2660.00,0.1084
2659.00,0.1083
2658.00,0.1083
2657.00,0.1083
2656.00,0.1084
2655.00,0.1084
2654.00,0.1086
2653.00,0.1088
2652.00,0.1089
2651.00,0.1089
2650.00,0.1088
2649.00,0.1086
2648.00,0.1083
2647.00,0.1080
2646.00,0.1077
2645.00,0.1075
2644.00,0.1074
2643.00,0.1073
2642.00,0.1072
2641.00,0.1071
2640.00,0.1071
2639.00,0.1071
2638.00,0.1072
2637.00,0.1073
2636.00,0.1074
2635.00,0.1076
2634.00,0.1077
2633.00,0.1077
2632.00,0.1077
2631.00,0.1076
2630.00,0.1074
2629.00,0.1073
2628.00,0.1071
2627.00,0.1070
2626.00,0.1068
2625.00,0.1067
2624.00,0.1065
2623.00,0.1064
2622.00,0.1063
2621.00,0.1062
2620.00,0.1061
2619.00,0.1061
2618.00,0.1061
2617.00,0.1060
2616.00,0.1060
2615.00,0.1060
2614.00,0.1059
2613.00,0.1059
2612.00,0.1058
2611.00,0.1058
2610.00,0.1059
2609.00,0.1060
2608.00,0.1061
2607.00,0.1063
2606.00,0.1064
2605.00,0.1066
2604.00,0.1068
2603.00,0.1069
2602.00,0.1070
2601.00,0.1071
2600.00,0.1071
2599.00,0.1072
2598.00,0.1072
2597.00,0.1071
2596.00,0.1070
2595.00,0.1070
2594.00,0.1069
2593.00,0.1068
2592.00,0.1068
2591.00,0.1067
2590.00,0.1067
2589.00,0.1067
2588.00,0.1068
2587.00,0.1068
2586.00,0.1068
2585.00,0.1068
2584.00,0.1068
2583.00,0.1068
2582.00,0.1067
2581.00,0.1065
2580.00,0.1063
2579.00,0.1061
2578.00,0.1060
2577.00,0.1059
2576.00,0.1058
2575.00,0.1057
2574.00,0.1057
2573.00,0.1057
2572.00,0.1056
2571.00,0.1056
2570.00,0.1054
2569.00,0.1053
2568.00,0.1052
2567.00,0.1051
2566.00,0.1050
2565.00,0.1049
2564.00,0.1048
2563.00,0.1047
2562.00,0.1047
2561.00,0.1047
2560.00,0.1047
2559.00,0.1048
2558.00,0.1049
2557.00,0.1050
2556.00,0.1051
2555.00,0.1052
2554.00,0.1053
2553.00,0.1053
2552.00,0.1054
2551.00,0.1054
2550.00,0.1055
2549.00,0.1055
2548.00,0.1056
2547.00,0.1056
2546.00,0.1056
2545.00,0.1056
2544.00,0.1056
2543.00,0.1056
2542.00,0.1055
2541.00,0.1055
2540.00,0.1055
2539.00,0.1057
2538.00,0.1058
2537.00,0.1060
2536.00,0.1061
2535.00,0.1062
2534.00,0.1064
2533.00,0.1066
2532.00,0.1068
2531.00,0.1070
2530.00,0.1070
2529.00,0.1067
2528.00,0.1064
2527.00,0.1061
2526.00,0.1058
2525.00,0.1058
2524.00,0.1058
2523.00,0.1059
2522.00,0.1060
2521.00,0.1062
2520.00,0.1062
2519.00,0.1062
2518.00,0.1062
2517.00,0.1061
2516.00,0.1061
2515.00,0.1060
2514.00,0.1059
2513.00,0.1059
2512.00,0.1058
2511.00,0.1058
2510.00,0.1058
2509.00,0.1057
2508.00,0.1056
2507.00,0.1054
2506.00,0.1053
2505.00,0.1051
2504.00,0.1051
2503.00,0.1050
2502.00,0.1050
2501.00,0.1049
2500.00,0.1049
2499.00,0.1049
2498.00,0.1048
2497.00,0.1048
2496.00,0.1048
2495.00,0.1048
2494.00,0.1048
2493.00,0.1047
2492.00,0.1047
2491.00,0.1046
2490.00,0.1046
2489.00,0.1046
2488.00,0.1046
2487.00,0.1046
2486.00,0.1047
2485.00,0.1046
2484.00,0.1046
2483.00,0.1045
2482.00,0.1044
2481.00,0.1044
2480.00,0.1043
2479.00,0.1043
2478.00,0.1043
2477.00,0.1044
2476.00,0.1045
2475.00,0.1046
2474.00,0.1048
2473.00,0.1049
2472.00,0.1050
2471.00,0.1051
2470.00,0.1052
2469.00,0.1053
2468.00,0.1054
2467.00,0.1055
2466.00,0.1055
2465.00,0.1055
2464.00,0.1055
2463.00,0.1054
2462.00,0.1052
2461.00,0.1051
2460.00,0.1050
2459.00,0.1050
2458.00,0.1050
2457.00,0.1052
2456.00,0.1053
2455.00,0.1054
2454.00,0.1054
2453.00,0.1054
2452.00,0.1053
2451.00,0.1051
2450.00,0.1050
2449.00,0.1049
2448.00,0.1047
2447.00,0.1047
2446.00,0.1047
2445.00,0.1047
2444.00,0.1049
2443.00,0.1051
2442.00,0.1053
2441.00,0.1056
2440.00,0.1058
2439.00,0.1060
2438.00,0.1062
2437.00,0.1062
2436.00,0.1061
2435.00,0.1060
2434.00,0.1058
2433.00,0.1057
2432.00,0.1056
2431.00,0.1056
2430.00,0.1057
2429.00,0.1060
2428.00,0.1065
2427.00,0.1072
2426.00,0.1081
2425.00,0.1093
2424.00,0.1106
2423.00,0.1116
2422.00,0.1120
2421.00,0.1119
2420.00,0.1113
2419.00,0.1105
2418.00,0.1097
2417.00,0.1091
2416.00,0.1088
2415.00,0.1086
2414.00,0.1085
2413.00,0.1084
2412.00,0.1081
2411.00,0.1078
2410.00,0.1075
2409.00,0.1072
2408.00,0.1069
2407.00,0.1066
2406.00,0.1064
2405.00,0.1061
2404.00,0.1059
2403.00,0.1057
2402.00,0.1054
2401.00,0.1052
2400.00,0.1050
2399.00,0.1048
2398.00,0.1047
2397.00,0.1046
2396.00,0.1045
2395.00,0.1045
2394.00,0.1045
2393.00,0.1045
2392.00,0.1046
2391.00,0.1047
2390.00,0.1048
2389.00,0.1050
2388.00,0.1051
2387.00,0.1054
2386.00,0.1057
2385.00,0.1061
2384.00,0.1064
2383.00,0.1067
2382.00,0.1067
2381.00,0.1066
2380.00,0.1065
2379.00,0.1064
2378.00,0.1065
2377.00,0.1067
2376.00,0.1071
2375.00,0.1075
2374.00,0.1078
2373.00,0.1080
2372.00,0.1080
2371.00,0.1078
2370.00,0.1076
2369.00,0.1073
2368.00,0.1071
2367.00,0.1069
2366.00,0.1069
2365.00,0.1069
2364.00,0.1070
2363.00,0.1070
2362.00,0.1071
2361.00,0.1073
2360.00,0.1075
2359.00,0.1077
2358.00,0.1079
2357.00,0.1081
2356.00,0.1083
2355.00,0.1086
2354.00,0.1089
2353.00,0.1093
2352.00,0.1094
2351.00,0.1091
2350.00,0.1086
2349.00,0.1082
2348.00,0.1081
2347.00,0.1080
2346.00,0.1080
2345.00,0.1078
2344.00,0.1077
2343.00,0.1076
2342.00,0.1076
2341.00,0.1077
2340.00,0.1077
2339.00,0.1078
2338.00,0.1080
2337.00,0.1083
2336.00,0.1083
2335.00,0.1081
2334.00,0.1079
2333.00,0.1079
2332.00,0.1079
2331.00,0.1081
2330.00,0.1082
2329.00,0.1084
2328.00,0.1085
2327.00,0.1085
2326.00,0.1083
2325.00,0.1081
2324.00,0.1078
2323.00,0.1077
2322.00,0.1076
2321.00,0.1077
2320.00,0.1077
2319.00,0.1075
2318.00,0.1072
2317.00,0.1068
2316.00,0.1064
2315.00,0.1062
2314.00,0.1060
2313.00,0.1059
2312.00,0.1059
2311.00,0.1060
2310.00,0.1062
2309.00,0.1065
2308.00,0.1070
2307.00,0.1076
2306.00,0.1081
2305.00,0.1083
2304.00,0.1082
2303.00,0.1080
2302.00,0.1077
2301.00,0.1074
2300.00,0.1073
2299.00,0.1073
2298.00,0.1076
2297.00,0.1080
2296.00,0.1085
2295.00,0.1088
2294.00,0.1091
2293.00,0.1093
2292.00,0.1095
2291.00,0.1099
2290.00,0.1103
2289.00,0.1106
2288.00,0.1107
2287.00,0.1104
2286.00,0.1098
2285.00,0.1090
2284.00,0.1082
2283.00,0.1074
2282.00,0.1067
2281.00,0.1062
2280.00,0.1058
2279.00,0.1056
2278.00,0.1056
2277.00,0.1057
2276.00,0.1059
2275.00,0.1060
2274.00,0.1061
2273.00,0.1061
2272.00,0.1061
2271.00,0.1060
2270.00,0.1057
2269.00,0.1054
2268.00,0.1052
2267.00,0.1049
2266.00,0.1047
2265.00,0.1045
2264.00,0.1043
2263.00,0.1041
2262.00,0.1040
2261.00,0.1039
2260.00,0.1039
2259.00,0.1038
2258.00,0.1038
2257.00,0.1037
2256.00,0.1038
2255.00,0.1041
2254.00,0.1046
2253.00,0.1051
2252.00,0.1055
2251.00,0.1055
2250.00,0.1051
2249.00,0.1046
2248.00,0.1041
2247.00,0.1037
2246.00,0.1035
2245.00,0.1034
2244.00,0.1035
2243.00,0.1034
2242.00,0.1033
2241.00,0.1031
2240.00,0.1030
2239.00,0.1030
2238.00,0.1030
2237.00,0.1032
2236.00,0.1034
2235.00,0.1035
2234.00,0.1035
2233.00,0.1034
2232.00,0.1032
2231.00,0.1030
2230.00,0.1029
2229.00,0.1028
2228.00,0.1028
2227.00,0.1027
2226.00,0.1025
2225.00,0.1024
2224.00,0.1023
2223.00,0.1023
2222.00,0.1023
2221.00,0.1023
2220.00,0.1022
2219.00,0.1021
2218.00,0.1020
2217.00,0.1019
2216.00,0.1019
2215.00,0.1019
2214.00,0.1019
2213.00,0.1020
2212.00,0.1021
2211.00,0.1022
2210.00,0.1022
2209.00,0.1022
2208.00,0.1022
2207.00,0.1021
2206.00,0.1020
2205.00,0.1018
2204.00,0.1018
2203.00,0.1017
2202.00,0.1017
2201.00,0.1017
2200.00,0.1018
2199.00,0.1019
2198.00,0.1020
2197.00,0.1020
2196.00,0.1019
2195.00,0.1017
2194.00,0.1016
2193.00,0.1015
2192.00,0.1013
2191.00,0.1012
2190.00,0.1012
2189.00,0.1013
2188.00,0.1014
2187.00,0.1015
2186.00,0.1015
2185.00,0.1012
2184.00,0.1009
2183.00,0.1006
2182.00,0.1003
2181.00,0.1002
2180.00,0.1003
2179.00,0.1005
2178.00,0.1007
2177.00,0.1009
2176.00,0.1010
2175.00,0.1012
2174.00,0.1016
2173.00,0.1020
2172.00,0.1024
2171.00,0.1027
2170.00,0.1028
2169.00,0.1026
2168.00,0.1023
2167.00,0.1021
2166.00,0.1020
2165.00,0.1021
2164.00,0.1024
2163.00,0.1026
2162.00,0.1022
2161.00,0.1013
2160.00,0.1001
2159.00,0.0993
2158.00,0.0989
2157.00,0.0991
2156.00,0.0996
2155.00,0.1002
2154.00,0.1006
2153.00,0.1009
2152.00,0.1010
2151.00,0.1009
2150.00,0.1008
2149.00,0.1006
2148.00,0.1006
2147.00,0.1006
2146.00,0.1006
2145.00,0.1006
2144.00,0.1006
2143.00,0.1006
2142.00,0.1006
2141.00,0.1006
2140.00,0.1005
2139.00,0.1003
2138.00,0.1001
2137.00,0.0998
2136.00,0.0996
2135.00,0.0995
2134.00,0.0996
2133.00,0.0998
2132.00,0.0999
2131.00,0.1001
2130.00,0.1002
2129.00,0.1004
2128.00,0.1005
2127.00,0.1007
2126.00,0.1010
2125.00,0.1012
2124.00,0.1013
2123.00,0.1014
2122.00,0.1015
2121.00,0.1015
2120.00,0.1014
2119.00,0.1015
2118.00,0.1015
2117.00,0.1016
2116.00,0.1017
2115.00,0.1017
2114.00,0.1018
2113.00,0.1018
2112.00,0.1018
2111.00,0.1019
2110.00,0.1020
2109.00,0.1021
2108.00,0.1022
2107.00,0.1022
2106.00,0.1023
2105.00,0.1024
2104.00,0.1025
2103.00,0.1025
2102.00,0.1024
2101.00,0.1021
2100.00,0.1017
2099.00,0.1014
2098.00,0.1010
2097.00,0.1008
2096.00,0.1007
2095.00,0.1007
2094.00,0.1008
2093.00,0.1009
2092.00,0.1010
2091.00,0.1012
2090.00,0.1013
2089.00,0.1014
2088.00,0.1014
2087.00,0.1014
2086.00,0.1015
2085.00,0.1015
2084.00,0.1016
2083.00,0.1017
2082.00,0.1020
2081.00,0.1022
2080.00,0.1025
2079.00,0.1027
2078.00,0.1028
2077.00,0.1028
2076.00,0.1027
2075.00,0.1025
2074.00,0.1021
2073.00,0.1018
2072.00,0.1015
2071.00,0.1012
2070.00,0.1011
2069.00,0.1010
2068.00,0.1010
2067.00,0.1011
2066.00,0.1012
2065.00,0.1013
2064.00,0.1013
2063.00,0.1013
2062.00,0.1013
2061.00,0.1013
2060.00,0.1013
2059.00,0.1011
2058.00,0.1009
2057.00,0.1007
2056.00,0.1006
2055.00,0.1005
2054.00,0.1007
2053.00,0.1009
2052.00,0.1010
2051.00,0.1007
2050.00,0.1003
2049.00,0.0998
2048.00,0.0996
2047.00,0.0996
2046.00,0.0998
2045.00,0.1000
2044.00,0.1003
2043.00,0.1007
2042.00,0.1011
2041.00,0.1015
2040.00,0.1018
2039.00,0.1020
2038.00,0.1019
2037.00,0.1019
2036.00,0.1018
2035.00,0.1017
2034.00,0.1014
2033.00,0.1012
2032.00,0.1011
2031.00,0.1011
2030.00,0.1012
2029.00,0.1013
2028.00,0.1015
2027.00,0.1015
2026.00,0.1013
2025.00,0.1010
2024.00,0.1007
2023.00,0.1005
2022.00,0.1002
2021.00,0.0999
2020.00,0.0996
2019.00,0.0993
2018.00,0.0988
2017.00,0.0983
2016.00,0.0978
2015.00,0.0974
2014.00,0.0970
2013.00,0.0966
2012.00,0.0965
2011.00,0.0965
2010.00,0.0966
2009.00,0.0969
2008.00,0.0972
2007.00,0.0974
2006.00,0.0975
2005.00,0.0977
2004.00,0.0979
2003.00,0.0982
2002.00,0.0986
2001.00,0.0990
2000.00,0.0996
1999.00,0.1001
1998.00,0.1003
1997.00,0.1003
1996.00,0.1002
1995.00,0.1001
1994.00,0.1002
1993.00,0.1005
1992.00,0.1011
1991.00,0.1019
1990.00,0.1026
1989.00,0.1030
1988.00,0.1030
1987.00,0.1027
1986.00,0.1022
1985.00,0.1018
1984.00,0.1016
1983.00,0.1015
1982.00,0.1013
1981.00,0.1009
1980.00,0.1003
1979.00,0.0997
1978.00,0.0991
1977.00,0.0986
1976.00,0.0985
1975.00,0.0986
1974.00,0.0988
1973.00,0.0988
1972.00,0.0989
1971.00,0.0991
1970.00,0.0992
1969.00,0.0994
1968.00,0.0996
1967.00,0.0998
1966.00,0.1002
1965.00,0.1009
1964.00,0.1019
1963.00,0.1034
1962.00,0.1054
1961.00,0.1083
1960.00,0.1126
1959.00,0.1182
1958.00,0.1246
1957.00,0.1306
1956.00,0.1348
1955.00,0.1363
1954.00,0.1353
1953.00,0.1325
1952.00,0.1292
1951.00,0.1261
1950.00,0.1238
1949.00,0.1222
1948.00,0.1214
1947.00,0.1212
1946.00,0.1216
1945.00,0.1222
1944.00,0.1227
1943.00,0.1230
1942.00,0.1227
1941.00,0.1219
1940.00,0.1207
1939.00,0.1192
1938.00,0.1173
1937.00,0.1152
1936.00,0.1132
1935.00,0.1115
1934.00,0.1103
1933.00,0.1094
1932.00,0.1090
1931.00,0.1090
1930.00,0.1093
1929.00,0.1099
1928.00,0.1109
1927.00,0.1121
1926.00,0.1136
1925.00,0.1153
1924.00,0.1171
1923.00,0.1183
1922.00,0.1188
1921.00,0.1183
1920.00,0.1172
1919.00,0.1159
1918.00,0.1147
1917.00,0.1141
1916.00,0.1142
1915.00,0.1151
1914.00,0.1168
1913.00,0.1192
1912.00,0.1222
1911.00,0.1257
1910.00,0.1292
1909.00,0.1318
1908.00,0.1331
1907.00,0.1328
1906.00,0.1311
1905.00,0.1285
1904.00,0.1257
1903.00,0.1230
1902.00,0.1204
1901.00,0.1182
1900.00,0.1162
1899.00,0.1145
1898.00,0.1130
1897.00,0.1119
1896.00,0.1109
1895.00,0.1100
1894.00,0.1092
1893.00,0.1084
1892.00,0.1077
1891.00,0.1072
1890.00,0.1067
1889.00,0.1063
1888.00,0.1059
1887.00,0.1055
1886.00,0.1053
1885.00,0.1050
1884.00,0.1048
1883.00,0.1046
1882.00,0.1044
1881.00,0.1042
1880.00,0.1041
1879.00,0.1039
1878.00,0.1038
1877.00,0.1038
1876.00,0.1038
1875.00,0.1038
1874.00,0.1038
1873.00,0.1039
1872.00,0.1041
1871.00,0.1044
1870.00,0.1049
1869.00,0.1056
1868.00,0.1065
1867.00,0.1076
1866.00,0.1088
1865.00,0.1102
1864.00,0.1117
1863.00,0.1133
1862.00,0.1150
1861.00,0.1169
1860.00,0.1189
1859.00,0.1211
1858.00,0.1230
1857.00,0.1243
1856.00,0.1246
1855.00,0.1237
1854.00,0.1220
1853.00,0.1201
1852.00,0.1183
1851.00,0.1172
1850.00,0.1166
1849.00,0.1166
1848.00,0.1171
1847.00,0.1179
1846.00,0.1189
1845.00,0.1200
1844.00,0.1207
1843.00,0.1205
1842.00,0.1195
1841.00,0.1178
1840.00,0.1157
1839.00,0.1136
1838.00,0.1117
1837.00,0.1102
1836.00,0.1091
1835.00,0.1082
1834.00,0.1076
1833.00,0.1072
1832.00,0.1070
1831.00,0.1070
1830.00,0.1073
1829.00,0.1080
1828.00,0.1091
1827.00,0.1106
1826.00,0.1126
1825.00,0.1147
1824.00,0.1167
1823.00,0.1185
1822.00,0.1202
1821.00,0.1217
1820.00,0.1233
1819.00,0.1249
1818.00,0.1262
1817.00,0.1269
1816.00,0.1265
1815.00,0.1252
1814.00,0.1231
1813.00,0.1207
1812.00,0.1184
1811.00,0.1162
1810.00,0.1143
1809.00,0.1127
1808.00,0.1114
1807.00,0.1104
1806.00,0.1096
1805.00,0.1089
1804.00,0.1084
1803.00,0.1080
1802.00,0.1076
1801.00,0.1072
1800.00,0.1068
1799.00,0.1066
1798.00,0.1065
1797.00,0.1067
1796.00,0.1070
1795.00,0.1074
1794.00,0.1081
1793.00,0.1092
1792.00,0.1107
1791.00,0.1122
1790.00,0.1138
1789.00,0.1154
1788.00,0.1169
1787.00,0.1185
1786.00,0.1198
1785.00,0.1206
1784.00,0.1207
1783.00,0.1199
1782.00,0.1186
1781.00,0.1169
1780.00,0.1151
1779.00,0.1135
1778.00,0.1122
1777.00,0.1113
1776.00,0.1106
1775.00,0.1100
1774.00,0.1095
1773.00,0.1092
1772.00,0.1089
1771.00,0.1086
1770.00,0.1085
1769.00,0.1084
1768.00,0.1083
1767.00,0.1080
1766.00,0.1077
1765.00,0.1074
1764.00,0.1071
1763.00,0.1068
1762.00,0.1065
1761.00,0.1061
1760.00,0.1058
1759.00,0.1056
1758.00,0.1056
1757.00,0.1055
1756.00,0.1055
1755.00,0.1056
1754.00,0.1059
1753.00,0.1064
1752.00,0.1073
1751.00,0.1086
1750.00,0.1100
1749.00,0.1117
1748.00,0.1135
1747.00,0.1155
1746.00,0.1176
1745.00,0.1197
1744.00,0.1216
1743.00,0.1236
1742.00,0.1261
1741.00,0.1294
1740.00,0.1335
1739.00,0.1375
1738.00,0.1405
1737.00,0.1420
1736.00,0.1421
1735.00,0.1410
1734.00,0.1388
1733.00,0.1361
1732.00,0.1338
1731.00,0.1318
1730.00,0.1297
1729.00,0.1277
1728.00,0.1260
1727.00,0.1248
1726.00,0.1239
1725.00,0.1233
1724.00,0.1228
1723.00,0.1225
1722.00,0.1222
1721.00,0.1220
1720.00,0.1221
1719.00,0.1223
1718.00,0.1227
1717.00,0.1229
1716.00,0.1224
1715.00,0.1211
1714.00,0.1193
1713.00,0.1174
1712.00,0.1158
1711.00,0.1144
1710.00,0.1133
1709.00,0.1124
1708.00,0.1117
1707.00,0.1112
1706.00,0.1108
1705.00,0.1105
1704.00,0.1103
1703.00,0.1101
1702.00,0.1100
1701.00,0.1101
1700.00,0.1102
1699.00,0.1105
1698.00,0.1112
1697.00,0.1123
1696.00,0.1137
1695.00,0.1152
1694.00,0.1165
1693.00,0.1179
1692.00,0.1192
1691.00,0.1204
1690.00,0.1214
1689.00,0.1222
1688.00,0.1228
1687.00,0.1233
1686.00,0.1237
1685.00,0.1239
1684.00,0.1238
1683.00,0.1233
1682.00,0.1229
1681.00,0.1226
1680.00,0.1223
1679.00,0.1221
1678.00,0.1222
1677.00,0.1225
1676.00,0.1234
1675.00,0.1244
1674.00,0.1252
1673.00,0.1256
1672.00,0.1255
1671.00,0.1247
1670.00,0.1233
1669.00,0.1214
1668.00,0.1193
1667.00,0.1176
1666.00,0.1160
1665.00,0.1145
1664.00,0.1131
1663.00,0.1118
1662.00,0.1107
1661.00,0.1098
1660.00,0.1092
1659.00,0.1088
1658.00,0.1083
1657.00,0.1078
1656.00,0.1073
1655.00,0.1071
1654.00,0.1072
1653.00,0.1075
1652.00,0.1075
1651.00,0.1077
1650.00,0.1081
1649.00,0.1080
1648.00,0.1077
1647.00,0.1073
1646.00,0.1069
1645.00,0.1066
1644.00,0.1067
1643.00,0.1069
1642.00,0.1072
1641.00,0.1075
1640.00,0.1077
1639.00,0.1078
1638.00,0.1079
1637.00,0.1079
1636.00,0.1078
1635.00,0.1076
1634.00,0.1071
1633.00,0.1066
1632.00,0.1061
1631.00,0.1056
1630.00,0.1051
1629.00,0.1046
1628.00,0.1042
1627.00,0.1039
1626.00,0.1037
1625.00,0.1035
1624.00,0.1033
1623.00,0.1032
1622.00,0.1029
1621.00,0.1027
1620.00,0.1026
1619.00,0.1025
1618.00,0.1026
1617.00,0.1027
1616.00,0.1029
1615.00,0.1032
1614.00,0.1035
1613.00,0.1037
1612.00,0.1038
1611.00,0.1041
1610.00,0.1044
1609.00,0.1047
1608.00,0.1051
1607.00,0.1057
1606.00,0.1061
1605.00,0.1061
1604.00,0.1058
1603.00,0.1053
1602.00,0.1045
1601.00,0.1033
1600.00,0.1022
1599.00,0.1014
1598.00,0.1031
1597.00,0.1114
1596.00,0.1321
1595.00,0.1666
1594.00,0.2056
1593.00,0.2310
1592.00,0.2303
1591.00,0.2094
1590.00,0.1845
1589.00,0.1661
1588.00,0.1548
1587.00,0.1466
1586.00,0.1388
1585.00,0.1314
1584.00,0.1253
1583.00,0.1210
1582.00,0.1182
1581.00,0.1165
1580.00,0.1152
1579.00,0.1140
1578.00,0.1130
1577.00,0.1125
1576.00,0.1125
1575.00,0.1131
1574.00,0.1143
1573.00,0.1161
1572.00,0.1185
1571.00,0.1217
1570.00,0.1255
1569.00,0.1292
1568.00,0.1317
1567.00,0.1326
1566.00,0.1320
1565.00,0.1303
1564.00,0.1284
1563.00,0.1265
1562.00,0.1249
1561.00,0.1235
1560.00,0.1219
1559.00,0.1200
1558.00,0.1177
1557.00,0.1160
1556.00,0.1151
1555.00,0.1141
1554.00,0.1126
1553.00,0.1108
1552.00,0.1093
1551.00,0.1079
1550.00,0.1066
1549.00,0.1056
1548.00,0.1047
1547.00,0.1041
1546.00,0.1036
1545.00,0.1031
1544.00,0.1026
1543.00,0.1020
1542.00,0.1014
1541.00,0.1009
1540.00,0.1004
1539.00,0.0998
1538.00,0.0994
1537.00,0.0992
1536.00,0.0990
1535.00,0.0985
1534.00,0.0979
1533.00,0.0973
1532.00,0.0968
1531.00,0.0963
1530.00,0.0959
1529.00,0.0953
1528.00,0.0948
1527.00,0.0944
1526.00,0.0947
1525.00,0.0969
1524.00,0.1022
1523.00,0.1112
1522.00,0.1228
1521.00,0.1328
1520.00,0.1371
1519.00,0.1361
1518.00,0.1317
1517.00,0.1256
1516.00,0.1191
1515.00,0.1144
1514.00,0.1136
1513.00,0.1181
1512.00,0.1273
1511.00,0.1380
1510.00,0.1462
1509.00,0.1509
1508.00,0.1564
1507.00,0.1713
1506.00,0.1975
1505.00,0.2241
1504.00,0.2397
1503.00,0.2425
1502.00,0.2358
1501.00,0.2241
1500.00,0.2102
1499.00,0.1959
1498.00,0.1819
1497.00,0.1692
1496.00,0.1587
1495.00,0.1509
1494.00,0.1455
1493.00,0.1417
1492.00,0.1386
1491.00,0.1361
1490.00,0.1338
1489.00,0.1319
1488.00,0.1303
1487.00,0.1288
1486.00,0.1274
1485.00,0.1262
1484.00,0.1251
1483.00,0.1241
1482.00,0.1232
1481.00,0.1225
1480.00,0.1218
1479.00,0.1212
1478.00,0.1207
1477.00,0.1202
1476.00,0.1197
1475.00,0.1193
1474.00,0.1188
1473.00,0.1185
1472.00,0.1181
1471.00,0.1177
1470.00,0.1175
1469.00,0.1173
1468.00,0.1172
1467.00,0.1170
1466.00,0.1167
1465.00,0.1164
1464.00,0.1162
1463.00,0.1160
1462.00,0.1158
1461.00,0.1156
1460.00,0.1154
1459.00,0.1152
1458.00,0.1150
1457.00,0.1149
1456.00,0.1148
1455.00,0.1147
1454.00,0.1147
1453.00,0.1147
1452.00,0.1148
1451.00,0.1151
1450.00,0.1156
1449.00,0.1167
1448.00,0.1183
1447.00,0.1204
1446.00,0.1225
1445.00,0.1241
1444.00,0.1248
1443.00,0.1243
1442.00,0.1229
1441.00,0.1212
1440.00,0.1199
1439.00,0.1190
1438.00,0.1186
1437.00,0.1187
1436.00,0.1194
1435.00,0.1204
1434.00,0.1212
1433.00,0.1218
1432.00,0.1221
1431.00,0.1219
1430.00,0.1212
1429.00,0.1202
1428.00,0.1192
1427.00,0.1181
1426.00,0.1170
1425.00,0.1160
1424.00,0.1151
1423.00,0.1144
1422.00,0.1137
1421.00,0.1131
1420.00,0.1127
1419.00,0.1125
1418.00,0.1121
1417.00,0.1117
1416.00,0.1115
1415.00,0.1112
1414.00,0.1108
1413.00,0.1104
1412.00,0.1102
1411.00,0.1101
1410.00,0.1097
1409.00,0.1094
1408.00,0.1093
1407.00,0.1092
1406.00,0.1091
1405.00,0.1088
1404.00,0.1087
1403.00,0.1086
1402.00,0.1084
1401.00,0.1082
1400.00,0.1081
1399.00,0.1081
1398.00,0.1080
1397.00,0.1080
1396.00,0.1087
1395.00,0.1115
1394.00,0.1197
1393.00,0.1383
1392.00,0.1692
1391.00,0.2064
1390.00,0.2361
1389.00,0.2451
1388.00,0.2340
1387.00,0.2159
1386.00,0.2015
1385.00,0.1914
1384.00,0.1816
1383.00,0.1702
1382.00,0.1586
1381.00,0.1483
1380.00,0.1399
1379.00,0.1334
1378.00,0.1286
1377.00,0.1252
1376.00,0.1228
1375.00,0.1214
1374.00,0.1211
1373.00,0.1216
1372.00,0.1228
1371.00,0.1245
1370.00,0.1269
1369.00,0.1299
1368.00,0.1328
1367.00,0.1355
1366.00,0.1386
1365.00,0.1429
1364.00,0.1488
1363.00,0.1548
1362.00,0.1578
1361.00,0.1556
1360.00,0.1490
1359.00,0.1414
1358.00,0.1352
1357.00,0.1312
1356.00,0.1287
1355.00,0.1273
1354.00,0.1266
1353.00,0.1264
1352.00,0.1265
1351.00,0.1266
1350.00,0.1265
1349.00,0.1257
1348.00,0.1241
1347.00,0.1221
1346.00,0.1200
1345.00,0.1181
1344.00,0.1165
1343.00,0.1152
1342.00,0.1144
1341.00,0.1138
1340.00,0.1133
1339.00,0.1128
1338.00,0.1124
1337.00,0.1120
1336.00,0.1115
1335.00,0.1110
1334.00,0.1107
1333.00,0.1104
1332.00,0.1102
1331.00,0.1099
1330.00,0.1097
1329.00,0.1096
1328.00,0.1095
1327.00,0.1094
1326.00,0.1093
1325.00,0.1093
1324.00,0.1092
1323.00,0.1091
1322.00,0.1090
1321.00,0.1090
1320.00,0.1090
1319.00,0.1089
1318.00,0.1089
1317.00,0.1089
1316.00,0.1089
1315.00,0.1089
1314.00,0.1091
1313.00,0.1094
1312.00,0.1099
1311.00,0.1105
1310.00,0.1112
1309.00,0.1119
1308.00,0.1125
1307.00,0.1131
1306.00,0.1137
1305.00,0.1143
1304.00,0.1147
1303.00,0.1146
1302.00,0.1138
1301.00,0.1126
1300.00,0.1111
1299.00,0.1098
1298.00,0.1086
1297.00,0.1076
1296.00,0.1068
1295.00,0.1061
1294.00,0.1055
1293.00,0.1050
1292.00,0.1046
1291.00,0.1042
1290.00,0.1039
1289.00,0.1036
1288.00,0.1033
1287.00,0.1029
1286.00,0.1026
1285.00,0.1024
1284.00,0.1022
1283.00,0.1021
1282.00,0.1021
1281.00,0.1024
1280.00,0.1031
1279.00,0.1049
1278.00,0.1093
1277.00,0.1191
1276.00,0.1372
1275.00,0.1637
1274.00,0.1941
1273.00,0.2191
1272.00,0.2295
1271.00,0.2225
1270.00,0.2035
1269.00,0.1810
1268.00,0.1616
1267.00,0.1479
1266.00,0.1397
1265.00,0.1353
1264.00,0.1327
1263.00,0.1306
1262.00,0.1283
1261.00,0.1254
1260.00,0.1225
1259.00,0.1201
1258.00,0.1188
1257.00,0.1184
1256.00,0.1189
1255.00,0.1202
1254.00,0.1222
1253.00,0.1245
1252.00,0.1270
1251.00,0.1297
1250.00,0.1329
1249.00,0.1368
1248.00,0.1418
1247.00,0.1481
1246.00,0.1547
1245.00,0.1594
1244.00,0.1600
1243.00,0.1562
1242.00,0.1493
1241.00,0.1414
1240.00,0.1341
1239.00,0.1281
1238.00,0.1235
1237.00,0.1202
1236.00,0.1176
1235.00,0.1155
1234.00,0.1139
1233.00,0.1126
1232.00,0.1115
1231.00,0.1104
1230.00,0.1093
1229.00,0.1083
1228.00,0.1072
1227.00,0.1060
1226.00,0.1049
1225.00,0.1038
1224.00,0.1028
1223.00,0.1020
1222.00,0.1015
1221.00,0.1019
1220.00,0.1038
1219.00,0.1077
1218.00,0.1144
1217.00,0.1241
1216.00,0.1368
1215.00,0.1518
1214.00,0.1678
1213.00,0.1831
1212.00,0.1955
1211.00,0.2024
1210.00,0.2023
1209.00,0.1953
1208.00,0.1838
1207.00,0.1710
1206.00,0.1594
1205.00,0.1500
1204.00,0.1429
1203.00,0.1378
1202.00,0.1342
1201.00,0.1317
1200.00,0.1298
1199.00,0.1283
1198.00,0.1271
1197.00,0.1261
1196.00,0.1253
1195.00,0.1249
1194.00,0.1248
1193.00,0.1249
1192.00,0.1251
1191.00,0.1253
1190.00,0.1254
1189.00,0.1254
1188.00,0.1252
1187.00,0.1248
1186.00,0.1244
1185.00,0.1239
1184.00,0.1234
1183.00,0.1230
1182.00,0.1229
1181.00,0.1235
1180.00,0.1247
1179.00,0.1267
1178.00,0.1292
1177.00,0.1313
1176.00,0.1321
1175.00,0.1313
1174.00,0.1291
1173.00,0.1263
1172.00,0.1235
1171.00,0.1210
1170.00,0.1190
1169.00,0.1175
1168.00,0.1163
1167.00,0.1153
1166.00,0.1145
1165.00,0.1138
1164.00,0.1132
1163.00,0.1126
1162.00,0.1120
1161.00,0.1115
1160.00,0.1111
1159.00,0.1107
1158.00,0.1103
1157.00,0.1099
1156.00,0.1094
1155.00,0.1089
1154.00,0.1082
1153.00,0.1075
1152.00,0.1068
1151.00,0.1061
1150.00,0.1054
1149.00,0.1049
1148.00,0.1046
1147.00,0.1048
1146.00,0.1063
1145.00,0.1106
1144.00,0.1182
1143.00,0.1269
1142.00,0.1324
1141.00,0.1315
1140.00,0.1249
1139.00,0.1165
1138.00,0.1095
1137.00,0.1047
1136.00,0.1012
1135.00,0.0983
1134.00,0.0964
1133.00,0.0968
1132.00,0.1019
1131.00,0.1150
1130.00,0.1382
1129.00,0.1687
1128.00,0.1979
1127.00,0.2172
1126.00,0.2265
1125.00,0.2338
1124.00,0.2441
1123.00,0.2523
1122.00,0.2490
1121.00,0.2315
1120.00,0.2072
1119.00,0.1850
1118.00,0.1685
1117.00,0.1571
1116.00,0.1488
1115.00,0.1428
1114.00,0.1384
1113.00,0.1351
1112.00,0.1326
1111.00,0.1306
1110.00,0.1291
1109.00,0.1278
1108.00,0.1265
1107.00,0.1255
1106.00,0.1246
1105.00,0.1238
1104.00,0.1231
1103.00,0.1226
1102.00,0.1222
1101.00,0.1217
1100.00,0.1212
1099.00,0.1207
1098.00,0.1203
1097.00,0.1200
1096.00,0.1196
1095.00,0.1194
1094.00,0.1195
1093.00,0.1200
1092.00,0.1209
1091.00,0.1222
1090.00,0.1236
1089.00,0.1245
1088.00,0.1245
1087.00,0.1238
1086.00,0.1227
1085.00,0.1216
1084.00,0.1205
1083.00,0.1197
1082.00,0.1189
1081.00,0.1182
1080.00,0.1176
1079.00,0.1171
1078.00,0.1167
1077.00,0.1165
1076.00,0.1162
1075.00,0.1159
1074.00,0.1158
1073.00,0.1156
1072.00,0.1154
1071.00,0.1152
1070.00,0.1151
1069.00,0.1150
1068.00,0.1148
1067.00,0.1146
1066.00,0.1145
1065.00,0.1145
1064.00,0.1143
1063.00,0.1141
1062.00,0.1139
1061.00,0.1138
1060.00,0.1136
1059.00,0.1134
1058.00,0.1133
1057.00,0.1131
1056.00,0.1129
1055.00,0.1126
1054.00,0.1124
1053.00,0.1122
1052.00,0.1120
1051.00,0.1117
1050.00,0.1115
1049.00,0.1114
1048.00,0.1112
1047.00,0.1109
1046.00,0.1107
1045.00,0.1105
1044.00,0.1101
1043.00,0.1097
1042.00,0.1094
1041.00,0.1092
1040.00,0.1089
1039.00,0.1085
1038.00,0.1083
1037.00,0.1080
1036.00,0.1076
1035.00,0.1072
1034.00,0.1068
1033.00,0.1065
1032.00,0.1060
1031.00,0.1055
1030.00,0.1050
1029.00,0.1046
1028.00,0.1040
1027.00,0.1033
1026.00,0.1027
1025.00,0.1021
1024.00,0.1013
1023.00,0.1005
1022.00,0.0998
1021.00,0.0992
1020.00,0.0983
1019.00,0.0970
1018.00,0.0954
1017.00,0.0934
1016.00,0.0910
1015.00,0.0885
1014.00,0.0863
1013.00,0.0846
1012.00,0.0854
1011.00,0.0937
1010.00,0.1154
1009.00,0.1521
1008.00,0.1957
1007.00,0.2296
1006.00,0.2398
1005.00,0.2286
1004.00,0.2095
1003.00,0.1925
1002.00,0.1799
1001.00,0.1698
1000.00,0.1609
999.00,0.1530
998.00,0.1466
997.00,0.1417
996.00,0.1380
995.00,0.1353
994.00,0.1331
993.00,0.1310
992.00,0.1291
991.00,0.1274
990.00,0.1260
989.00,0.1248
988.00,0.1239
987.00,0.1235
986.00,0.1237
985.00,0.1249
984.00,0.1284
983.00,0.1351
982.00,0.1446
981.00,0.1536
980.00,0.1584
979.00,0.1576
978.00,0.1533
977.00,0.1487
976.00,0.1458
975.00,0.1442
974.00,0.1428
973.00,0.1413
972.00,0.1395
971.00,0.1375
970.00,0.1355
969.00,0.1335
968.00,0.1321
967.00,0.1319
966.00,0.1336
965.00,0.1389
964.00,0.1501
963.00,0.1692
962.00,0.1963
961.00,0.2272
960.00,0.2531
959.00,0.2639
958.00,0.2553
957.00,0.2324
956.00,0.2051
955.00,0.1812
954.00,0.1636
953.00,0.1518
952.00,0.1441
951.00,0.1390
950.00,0.1353
949.00,0.1326
948.00,0.1305
947.00,0.1288
946.00,0.1275
945.00,0.1264
944.00,0.1257
943.00,0.1252
942.00,0.1251
941.00,0.1253
940.00,0.1256
939.00,0.1261
938.00,0.1264
937.00,0.1265
936.00,0.1265
935.00,0.1263
934.00,0.1259
933.00,0.1253
932.00,0.1246
931.00,0.1238
930.00,0.1230
929.00,0.1221
928.00,0.1214
927.00,0.1208
926.00,0.1202
925.00,0.1198
924.00,0.1194
923.00,0.1192
922.00,0.1191
921.00,0.1191
920.00,0.1191
919.00,0.1194
918.00,0.1198
917.00,0.1202
916.00,0.1206
915.00,0.1209
914.00,0.1211
913.00,0.1210
912.00,0.1208
911.00,0.1205
910.00,0.1203
909.00,0.1200
908.00,0.1196
907.00,0.1193
906.00,0.1189
905.00,0.1185
904.00,0.1180
903.00,0.1176
902.00,0.1172
901.00,0.1169
900.00,0.1165
899.00,0.1162
898.00,0.1160
897.00,0.1157
896.00,0.1154
895.00,0.1152
894.00,0.1149
893.00,0.1146
892.00,0.1141
891.00,0.1138
890.00,0.1135
889.00,0.1133
888.00,0.1131
887.00,0.1131
886.00,0.1131
885.00,0.1131
884.00,0.1131
883.00,0.1133
882.00,0.1135
881.00,0.1136
880.00,0.1137
879.00,0.1137
878.00,0.1138
877.00,0.1138
876.00,0.1139
875.00,0.1141
874.00,0.1144
873.00,0.1146
872.00,0.1147
871.00,0.1148
870.00,0.1147
869.00,0.1146
868.00,0.1143
867.00,0.1142
866.00,0.1141
865.00,0.1140
864.00,0.1138
863.00,0.1138
862.00,0.1138
861.00,0.1137
860.00,0.1135
859.00,0.1134
858.00,0.1134
857.00,0.1133
856.00,0.1132
855.00,0.1133
854.00,0.1134
853.00,0.1135
852.00,0.1137
851.00,0.1142
850.00,0.1154
849.00,0.1181
848.00,0.1246
847.00,0.1365
846.00,0.1518
845.00,0.1641
844.00,0.1666
843.00,0.1589
842.00,0.1467
841.00,0.1360
840.00,0.1289
839.00,0.1245
838.00,0.1215
837.00,0.1197
836.00,0.1189
835.00,0.1186
834.00,0.1187
833.00,0.1192
832.00,0.1198
831.00,0.1205
830.00,0.1208
829.00,0.1208
828.00,0.1208
827.00,0.1210
826.00,0.1218
825.00,0.1237
824.00,0.1264
823.00,0.1293
822.00,0.1315
821.00,0.1327
820.00,0.1326
819.00,0.1314
818.00,0.1294
817.00,0.1269
816.00,0.1243
815.00,0.1218
814.00,0.1194
813.00,0.1172
812.00,0.1153
811.00,0.1137
810.00,0.1122
809.00,0.1110
808.00,0.1100
807.00,0.1092
806.00,0.1085
805.00,0.1081
804.00,0.1081
803.00,0.1087
802.00,0.1106
801.00,0.1161
800.00,0.1271
799.00,0.1427
798.00,0.1576
797.00,0.1664
796.00,0.1697
795.00,0.1752
794.00,0.1920
793.00,0.2241
792.00,0.2691
791.00,0.3184
790.00,0.3611
789.00,0.3888
788.00,0.4003
787.00,0.4008
786.00,0.3968
785.00,0.3931
784.00,0.3920
783.00,0.3955
782.00,0.4055
781.00,0.4236
780.00,0.4508
779.00,0.4863
778.00,0.5260
777.00,0.5628
776.00,0.5889
775.00,0.6012
774.00,0.6021
773.00,0.5958
772.00,0.5850
771.00,0.5712
770.00,0.5557
769.00,0.5388
768.00,0.5207
767.00,0.5016
766.00,0.4822
765.00,0.4629
764.00,0.4440
763.00,0.4258
762.00,0.4087
761.00,0.3929
760.00,0.3778
759.00,0.3628
758.00,0.3479
757.00,0.3338
756.00,0.3211
755.00,0.3105
754.00,0.3021
753.00,0.2959
752.00,0.2917
751.00,0.2889
750.00,0.2864
749.00,0.2829
748.00,0.2772
747.00,0.2690
746.00,0.2590
745.00,0.2483
744.00,0.2382
743.00,0.2293
742.00,0.2217
741.00,0.2154
740.00,0.2101
739.00,0.2055
738.00,0.2016
737.00,0.1985
736.00,0.1962
735.00,0.1947
734.00,0.1944
733.00,0.1949
732.00,0.1960
731.00,0.1971
730.00,0.1975
729.00,0.1969
728.00,0.1951
727.00,0.1923
726.00,0.1887
725.00,0.1847
724.00,0.1806
723.00,0.1767
722.00,0.1733
721.00,0.1703
720.00,0.1677
719.00,0.1655
718.00,0.1634
717.00,0.1615
716.00,0.1595
715.00,0.1574
714.00,0.1554
713.00,0.1534
712.00,0.1516
711.00,0.1500
710.00,0.1486
709.00,0.1474
708.00,0.1462
707.00,0.1452
706.00,0.1442
705.00,0.1435
704.00,0.1428
703.00,0.1422
702.00,0.1417
701.00,0.1412
700.00,0.1407
699.00,0.1402
698.00,0.1398
697.00,0.1394
696.00,0.1390
695.00,0.1385
694.00,0.1380
693.00,0.1375
692.00,0.1370
691.00,0.1365
690.00,0.1360
689.00,0.1356
688.00,0.1352
687.00,0.1349
686.00,0.1346
685.00,0.1342
684.00,0.1337
683.00,0.1334
682.00,0.1330
681.00,0.1325
680.00,0.1321
679.00,0.1316
678.00,0.1311
677.00,0.1306
676.00,0.1300
675.00,0.1295
674.00,0.1290
673.00,0.1285
672.00,0.1281
671.00,0.1279
670.00,0.1282
669.00,0.1291
668.00,0.1307
667.00,0.1314
666.00,0.1299
665.00,0.1277
664.00,0.1262
663.00,0.1256
662.00,0.1253
661.00,0.1253
660.00,0.1252
659.00,0.1252
658.00,0.1250
657.00,0.1247
656.00,0.1243
655.00,0.1239
654.00,0.1233
653.00,0.1225
652.00,0.1217
651.00,0.1210
650.00,0.1203
649.00,0.1196
648.00,0.1189
647.00,0.1184
646.00,0.1178
645.00,0.1172
644.00,0.1166
643.00,0.1162
642.00,0.1158
641.00,0.1153
640.00,0.1148
639.00,0.1143
638.00,0.1139
637.00,0.1134
636.00,0.1129
635.00,0.1124
634.00,0.1119
633.00,0.1113
632.00,0.1106
631.00,0.1102
630.00,0.1096
629.00,0.1086
628.00,0.1074
627.00,0.1065
626.00,0.1061
625.00,0.1064
624.00,0.1064
623.00,0.1047
622.00,0.1018
621.00,0.1030
620.00,0.1169
619.00,0.1475
618.00,0.1869
617.00,0.2168
616.00,0.2226
615.00,0.2083
614.00,0.1884
613.00,0.1715
612.00,0.1587
611.00,0.1487
610.00,0.1417
609.00,0.1374
608.00,0.1346
607.00,0.1324
606.00,0.1309
605.00,0.1300
604.00,0.1295
603.00,0.1288
602.00,0.1284
601.00,0.1282
600.00,0.1280
599.00,0.1274
598.00,0.1268
597.00,0.1263
596.00,0.1257
595.00,0.1249
594.00,0.1241
593.00,0.1238
592.00,0.1235
591.00,0.1233
590.00,0.1233
589.00,0.1236
588.00,0.1239
587.00,0.1243
586.00,0.1247
585.00,0.1255
584.00,0.1264
583.00,0.1272
582.00,0.1282
581.00,0.1292
580.00,0.1300
579.00,0.1304
578.00,0.1307
577.00,0.1309
576.00,0.1307
575.00,0.1301
574.00,0.1292
573.00,0.1283
572.00,0.1273
571.00,0.1263
570.00,0.1254
569.00,0.1247
568.00,0.1241
567.00,0.1235
566.00,0.1232
565.00,0.1233
564.00,0.1235
563.00,0.1238
562.00,0.1243
561.00,0.1248
560.00,0.1251
559.00,0.1250
558.00,0.1246
557.00,0.1241
556.00,0.1235
555.00,0.1229
554.00,0.1224
553.00,0.1220
552.00,0.1215
551.00,0.1210
550.00,0.1207
549.00,0.1207
548.00,0.1207
547.00,0.1206
546.00,0.1204
545.00,0.1202
544.00,0.1198
543.00,0.1193
542.00,0.1190
541.00,0.1188
540.00,0.1186
539.00,0.1184
538.00,0.1182
537.00,0.1181
536.00,0.1178
535.00,0.1175
534.00,0.1172
533.00,0.1171
532.00,0.1168
531.00,0.1165
530.00,0.1164
529.00,0.1164
528.00,0.1165
527.00,0.1165
526.00,0.1165
525.00,0.1165
524.00,0.1164
523.00,0.1161
522.00,0.1161
521.00,0.1162
520.00,0.1164
519.00,0.1165
518.00,0.1164
517.00,0.1164
516.00,0.1163
515.00,0.1161
514.00,0.1159
513.00,0.1158
512.00,0.1156
511.00,0.1154
510.00,0.1153
509.00,0.1155
508.00,0.1157
507.00,0.1160
506.00,0.1167
505.00,0.1174
504.00,0.1178
503.00,0.1178
502.00,0.1175
501.00,0.1170
500.00,0.1164
499.00,0.1157
498.00,0.1150
497.00,0.1147
496.00,0.1147
495.00,0.1149
494.00,0.1154
493.00,0.1164
492.00,0.1179
491.00,0.1202
490.00,0.1241
489.00,0.1307
488.00,0.1417
487.00,0.1591
486.00,0.1857
485.00,0.2237
484.00,0.2740
483.00,0.3342
482.00,0.3957
481.00,0.4443
480.00,0.4665
479.00,0.4585
478.00,0.4299
477.00,0.3955
476.00,0.3692
475.00,0.3626
474.00,0.3838
473.00,0.4292
472.00,0.4728
471.00,0.4773
470.00,0.4355
469.00,0.3757
468.00,0.3228
467.00,0.2841
466.00,0.2575
465.00,0.2388
464.00,0.2243
463.00,0.2121
462.00,0.2013
461.00,0.1922
460.00,0.1846
459.00,0.1783
458.00,0.1728
457.00,0.1681
456.00,0.1642
455.00,0.1610
454.00,0.1583
453.00,0.1561
452.00,0.1540
451.00,0.1519
450.00,0.1499
449.00,0.1482
448.00,0.1468
447.00,0.1456
446.00,0.1443
445.00,0.1431
444.00,0.1417
443.00,0.1401
442.00,0.1388
441.00,0.1379
440.00,0.1372
439.00,0.1366
438.00,0.1358
437.00,0.1350
436.00,0.1341
435.00,0.1332
434.00,0.1323
433.00,0.1316
432.00,0.1310
431.00,0.1305
430.00,0.1300
429.00,0.1298
428.00,0.1294
427.00,0.1287
426.00,0.1279
425.00,0.1273
424.00,0.1272
423.00,0.1275
422.00,0.1280
421.00,0.1282
420.00,0.1278
419.00,0.1268
418.00,0.1257
417.00,0.1249
416.00,0.1243
415.00,0.1239
414.00,0.1237
413.00,0.1237
412.00,0.1237
411.00,0.1235
410.00,0.1234
409.00,0.1233
408.00,0.1233
407.00,0.1235
406.00,0.1240
405.00,0.1244
404.00,0.1242
403.00,0.1233
402.00,0.1223
401.00,0.1215
400.00,0.1203
