Created as New Dataset,Sample 843 By YargerLab Date Saturday, April 18 2026
cm-1,A
4000.00,0.0159
3999.00,0.0159
3998.00,0.0159
3997.00,0.0159
3996.00,0.0159
3995.00,0.0159
3994.00,0.0159
3993.00,0.0159
3992.00,0.0159
3991.00,0.0160
3990.00,0.0160
3989.00,0.0160
3988.00,0.0160
3987.00,0.0160
3986.00,0.0159
3985.00,0.0159
3984.00,0.0159
3983.00,0.0159
3982.00,0.0159
3981.00,0.0159
3980.00,0.0159
3979.00,0.0159
3978.00,0.0159
3977.00,0.0158
3976.00,0.0158
3975.00,0.0158
3974.00,0.0158
3973.00,0.0158
3972.00,0.0158
3971.00,0.0158
3970.00,0.0158
3969.00,0.0158
3968.00,0.0158
3967.00,0.0158
3966.00,0.0157
3965.00,0.0157
3964.00,0.0157
3963.00,0.0157
3962.00,0.0157
3961.00,0.0157
3960.00,0.0157
3959.00,0.0157
3958.00,0.0156
3957.00,0.0156
3956.00,0.0156
3955.00,0.0156
3954.00,0.0156
3953.00,0.0156
3952.00,0.0156
3951.00,0.0156
3950.00,0.0156
3949.00,0.0156
3948.00,0.0156
3947.00,0.0156
3946.00,0.0157
3945.00,0.0157
3944.00,0.0157
3943.00,0.0157
3942.00,0.0157
3941.00,0.0156
3940.00,0.0156
3939.00,0.0156
3938.00,0.0156
3937.00,0.0156
3936.00,0.0157
3935.00,0.0157
3934.00,0.0156
3933.00,0.0156
3932.00,0.0156
3931.00,0.0156
3930.00,0.0156
3929.00,0.0156
3928.00,0.0156
3927.00,0.0156
3926.00,0.0156
3925.00,0.0156
3924.00,0.0156
3923.00,0.0156
3922.00,0.0155
3921.00,0.0155
3920.00,0.0155
3919.00,0.0155
3918.00,0.0155
3917.00,0.0155
3916.00,0.0155
3915.00,0.0155
3914.00,0.0155
3913.00,0.0155
3912.00,0.0155
3911.00,0.0155
3910.00,0.0155
3909.00,0.0155
3908.00,0.0155
3907.00,0.0154
3906.00,0.0154
3905.00,0.0154
3904.00,0.0154
3903.00,0.0154
3902.00,0.0154
3901.00,0.0154
3900.00,0.0153
3899.00,0.0153
3898.00,0.0153
3897.00,0.0153
3896.00,0.0154
3895.00,0.0154
3894.00,0.0154
3893.00,0.0154
3892.00,0.0154
3891.00,0.0153
3890.00,0.0153
3889.00,0.0153
3888.00,0.0153
3887.00,0.0153
3886.00,0.0153
3885.00,0.0153
3884.00,0.0152
3883.00,0.0152
3882.00,0.0152
3881.00,0.0152
3880.00,0.0152
3879.00,0.0152
3878.00,0.0152
3877.00,0.0152
3876.00,0.0152
3875.00,0.0152
3874.00,0.0151
3873.00,0.0151
3872.00,0.0151
3871.00,0.0151
3870.00,0.0151
3869.00,0.0151
3868.00,0.0151
3867.00,0.0151
3866.00,0.0151
3865.00,0.0151
3864.00,0.0150
3863.00,0.0150
3862.00,0.0150
3861.00,0.0150
3860.00,0.0150
3859.00,0.0150
3858.00,0.0150
3857.00,0.0149
3856.00,0.0148
3855.00,0.0148
3854.00,0.0148
3853.00,0.0149
3852.00,0.0149
3851.00,0.0150
3850.00,0.0150
3849.00,0.0150
3848.00,0.0150
3847.00,0.0150
3846.00,0.0150
3845.00,0.0149
3844.00,0.0149
3843.00,0.0149
3842.00,0.0149
3841.00,0.0149
3840.00,0.0148
3839.00,0.0148
3838.00,0.0148
3837.00,0.0148
3836.00,0.0148
3835.00,0.0148
3834.00,0.0148
3833.00,0.0148
3832.00,0.0148
3831.00,0.0148
3830.00,0.0148
3829.00,0.0148
3828.00,0.0148
3827.00,0.0148
3826.00,0.0148
3825.00,0.0148
3824.00,0.0147
3823.00,0.0147
3822.00,0.0146
3821.00,0.0146
3820.00,0.0147
3819.00,0.0147
3818.00,0.0147
3817.00,0.0147
3816.00,0.0148
3815.00,0.0148
3814.00,0.0148
3813.00,0.0148
3812.00,0.0148
3811.00,0.0148
3810.00,0.0148
3809.00,0.0147
3808.00,0.0147
3807.00,0.0147
3806.00,0.0146
3805.00,0.0146
3804.00,0.0146
3803.00,0.0146
3802.00,0.0146
3801.00,0.0146
3800.00,0.0146
3799.00,0.0147
3798.00,0.0147
3797.00,0.0147
3796.00,0.0147
3795.00,0.0147
3794.00,0.0147
3793.00,0.0146
3792.00,0.0146
3791.00,0.0147
3790.00,0.0147
3789.00,0.0147
3788.00,0.0147
3787.00,0.0147
3786.00,0.0147
3785.00,0.0146
3784.00,0.0146
3783.00,0.0146
3782.00,0.0146
3781.00,0.0145
3780.00,0.0145
3779.00,0.0145
3778.00,0.0145
3777.00,0.0145
3776.00,0.0145
3775.00,0.0144
3774.00,0.0144
3773.00,0.0144
3772.00,0.0144
3771.00,0.0144
3770.00,0.0143
3769.00,0.0143
3768.00,0.0143
3767.00,0.0143
3766.00,0.0143
3765.00,0.0143
3764.00,0.0143
3763.00,0.0143
3762.00,0.0143
3761.00,0.0143
3760.00,0.0143
3759.00,0.0142
3758.00,0.0142
3757.00,0.0142
3756.00,0.0141
3755.00,0.0141
3754.00,0.0141
3753.00,0.0141
3752.00,0.0141
3751.00,0.0141
3750.00,0.0141
3749.00,0.0141
3748.00,0.0141
3747.00,0.0141
3746.00,0.0141
3745.00,0.0140
3744.00,0.0140
3743.00,0.0140
3742.00,0.0140
3741.00,0.0140
3740.00,0.0139
3739.00,0.0139
3738.00,0.0139
3737.00,0.0139
3736.00,0.0139
3735.00,0.0138
3734.00,0.0138
3733.00,0.0137
3732.00,0.0137
3731.00,0.0137
3730.00,0.0137
3729.00,0.0138
3728.00,0.0138
3727.00,0.0138
3726.00,0.0137
3725.00,0.0137
3724.00,0.0137
3723.00,0.0136
3722.00,0.0136
3721.00,0.0136
3720.00,0.0136
3719.00,0.0136
3718.00,0.0136
3717.00,0.0136
3716.00,0.0136
3715.00,0.0136
3714.00,0.0136
3713.00,0.0136
3712.00,0.0136
3711.00,0.0136
3710.00,0.0135
3709.00,0.0135
3708.00,0.0135
3707.00,0.0135
3706.00,0.0135
3705.00,0.0135
3704.00,0.0134
3703.00,0.0134
3702.00,0.0133
3701.00,0.0133
3700.00,0.0133
3699.00,0.0133
3698.00,0.0134
3697.00,0.0134
3696.00,0.0134
3695.00,0.0134
3694.00,0.0133
3693.00,0.0133
3692.00,0.0133
3691.00,0.0132
3690.00,0.0132
3689.00,0.0132
3688.00,0.0132
3687.00,0.0132
3686.00,0.0133
3685.00,0.0133
3684.00,0.0133
3683.00,0.0132
3682.00,0.0132
3681.00,0.0132
3680.00,0.0131
3679.00,0.0131
3678.00,0.0130
3677.00,0.0130
3676.00,0.0130
3675.00,0.0130
3674.00,0.0130
3673.00,0.0130
3672.00,0.0130
3671.00,0.0130
3670.00,0.0130
3669.00,0.0130
3668.00,0.0130
3667.00,0.0130
3666.00,0.0130
3665.00,0.0130
3664.00,0.0130
3663.00,0.0130
3662.00,0.0130
3661.00,0.0130
3660.00,0.0130
3659.00,0.0130
3658.00,0.0130
3657.00,0.0130
3656.00,0.0130
3655.00,0.0130
3654.00,0.0130
3653.00,0.0130
3652.00,0.0130
3651.00,0.0130
3650.00,0.0131
3649.00,0.0131
3648.00,0.0131
3647.00,0.0131
3646.00,0.0131
3645.00,0.0132
3644.00,0.0132
3643.00,0.0132
3642.00,0.0132
3641.00,0.0132
3640.00,0.0131
3639.00,0.0131
3638.00,0.0131
3637.00,0.0131
3636.00,0.0130
3635.00,0.0130
3634.00,0.0130
3633.00,0.0130
3632.00,0.0129
3631.00,0.0129
3630.00,0.0129
3629.00,0.0129
3628.00,0.0129
3627.00,0.0129
3626.00,0.0129
3625.00,0.0129
3624.00,0.0129
3623.00,0.0129
3622.00,0.0129
3621.00,0.0129
3620.00,0.0129
3619.00,0.0129
3618.00,0.0129
3617.00,0.0129
3616.00,0.0129
3615.00,0.0130
3614.00,0.0129
3613.00,0.0129
3612.00,0.0129
3611.00,0.0128
3610.00,0.0128
3609.00,0.0128
3608.00,0.0128
3607.00,0.0128
3606.00,0.0127
3605.00,0.0127
3604.00,0.0127
3603.00,0.0128
3602.00,0.0128
3601.00,0.0128
3600.00,0.0128
3599.00,0.0127
3598.00,0.0127
3597.00,0.0127
3596.00,0.0127
3595.00,0.0127
3594.00,0.0127
3593.00,0.0127
3592.00,0.0126
3591.00,0.0126
3590.00,0.0127
3589.00,0.0127
3588.00,0.0127
3587.00,0.0126
3586.00,0.0126
3585.00,0.0126
3584.00,0.0126
3583.00,0.0126
3582.00,0.0127
3581.00,0.0127
3580.00,0.0127
3579.00,0.0127
3578.00,0.0127
3577.00,0.0126
3576.00,0.0126
3575.00,0.0126
3574.00,0.0126
3573.00,0.0126
3572.00,0.0126
3571.00,0.0126
3570.00,0.0127
3569.00,0.0127
3568.00,0.0127
3567.00,0.0127
3566.00,0.0126
3565.00,0.0126
3564.00,0.0126
3563.00,0.0126
3562.00,0.0126
3561.00,0.0126
3560.00,0.0126
3559.00,0.0126
3558.00,0.0126
3557.00,0.0127
3556.00,0.0127
3555.00,0.0127
3554.00,0.0127
3553.00,0.0127
3552.00,0.0126
3551.00,0.0126
3550.00,0.0126
3549.00,0.0126
3548.00,0.0126
3547.00,0.0126
3546.00,0.0126
3545.00,0.0126
3544.00,0.0126
3543.00,0.0126
3542.00,0.0127
3541.00,0.0127
3540.00,0.0127
3539.00,0.0127
3538.00,0.0127
3537.00,0.0127
3536.00,0.0127
3535.00,0.0127
3534.00,0.0127
3533.00,0.0127
3532.00,0.0127
3531.00,0.0127
3530.00,0.0127
3529.00,0.0128
3528.00,0.0128
3527.00,0.0128
3526.00,0.0128
3525.00,0.0127
3524.00,0.0127
3523.00,0.0127
3522.00,0.0127
3521.00,0.0128
3520.00,0.0128
3519.00,0.0128
3518.00,0.0128
3517.00,0.0128
3516.00,0.0128
3515.00,0.0128
3514.00,0.0128
3513.00,0.0128
3512.00,0.0129
3511.00,0.0129
3510.00,0.0129
3509.00,0.0129
3508.00,0.0129
3507.00,0.0129
3506.00,0.0129
3505.00,0.0129
3504.00,0.0128
3503.00,0.0128
3502.00,0.0128
3501.00,0.0129
3500.00,0.0129
3499.00,0.0129
3498.00,0.0129
3497.00,0.0129
3496.00,0.0129
3495.00,0.0129
3494.00,0.0129
3493.00,0.0129
3492.00,0.0129
3491.00,0.0129
3490.00,0.0129
3489.00,0.0129
3488.00,0.0129
3487.00,0.0129
3486.00,0.0129
3485.00,0.0129
3484.00,0.0128
3483.00,0.0128
3482.00,0.0128
3481.00,0.0127
3480.00,0.0127
3479.00,0.0128
3478.00,0.0128
3477.00,0.0128
3476.00,0.0128
3475.00,0.0128
3474.00,0.0128
3473.00,0.0128
3472.00,0.0127
3471.00,0.0127
3470.00,0.0127
3469.00,0.0127
3468.00,0.0127
3467.00,0.0128
3466.00,0.0128
3465.00,0.0129
3464.00,0.0129
3463.00,0.0129
3462.00,0.0129
3461.00,0.0129
3460.00,0.0129
3459.00,0.0129
3458.00,0.0130
3457.00,0.0130
3456.00,0.0130
3455.00,0.0131
3454.00,0.0131
3453.00,0.0131
3452.00,0.0132
3451.00,0.0132
3450.00,0.0132
3449.00,0.0132
3448.00,0.0132
3447.00,0.0133
3446.00,0.0133
3445.00,0.0133
3444.00,0.0134
3443.00,0.0134
3442.00,0.0133
3441.00,0.0133
3440.00,0.0133
3439.00,0.0133
3438.00,0.0133
3437.00,0.0133
3436.00,0.0133
3435.00,0.0133
3434.00,0.0134
3433.00,0.0135
3432.00,0.0135
3431.00,0.0136
3430.00,0.0136
3429.00,0.0137
3428.00,0.0138
3427.00,0.0139
3426.00,0.0139
3425.00,0.0140
3424.00,0.0141
3423.00,0.0141
3422.00,0.0141
3421.00,0.0142
3420.00,0.0142
3419.00,0.0143
3418.00,0.0143
3417.00,0.0143
3416.00,0.0143
3415.00,0.0143
3414.00,0.0143
3413.00,0.0143
3412.00,0.0144
3411.00,0.0144
3410.00,0.0145
3409.00,0.0146
3408.00,0.0147
3407.00,0.0148
3406.00,0.0148
3405.00,0.0148
3404.00,0.0147
3403.00,0.0147
3402.00,0.0146
3401.00,0.0146
3400.00,0.0148
3399.00,0.0150
3398.00,0.0152
3397.00,0.0153
3396.00,0.0154
3395.00,0.0154
3394.00,0.0154
3393.00,0.0154
3392.00,0.0154
3391.00,0.0156
3390.00,0.0158
3389.00,0.0160
3388.00,0.0162
3387.00,0.0163
3386.00,0.0164
3385.00,0.0165
3384.00,0.0166
3383.00,0.0166
3382.00,0.0166
3381.00,0.0167
3380.00,0.0168
3379.00,0.0168
3378.00,0.0169
3377.00,0.0170
3376.00,0.0171
3375.00,0.0172
3374.00,0.0172
3373.00,0.0172
3372.00,0.0170
3371.00,0.0169
3370.00,0.0168
3369.00,0.0169
3368.00,0.0170
3367.00,0.0172
3366.00,0.0175
3365.00,0.0177
3364.00,0.0179
3363.00,0.0179
3362.00,0.0180
3361.00,0.0181
3360.00,0.0182
3359.00,0.0184
3358.00,0.0185
3357.00,0.0187
3356.00,0.0187
3355.00,0.0188
3354.00,0.0187
3353.00,0.0186
3352.00,0.0185
3351.00,0.0185
3350.00,0.0187
3349.00,0.0190
3348.00,0.0192
3347.00,0.0194
3346.00,0.0194
3345.00,0.0194
3344.00,0.0194
3343.00,0.0195
3342.00,0.0195
3341.00,0.0195
3340.00,0.0196
3339.00,0.0196
3338.00,0.0198
3337.00,0.0200
3336.00,0.0202
3335.00,0.0204
3334.00,0.0206
3333.00,0.0207
3332.00,0.0208
3331.00,0.0209
3330.00,0.0210
3329.00,0.0210
3328.00,0.0210
3327.00,0.0210
3326.00,0.0211
3325.00,0.0213
3324.00,0.0215
3323.00,0.0217
3322.00,0.0219
3321.00,0.0221
3320.00,0.0223
3319.00,0.0224
3318.00,0.0225
3317.00,0.0227
3316.00,0.0228
3315.00,0.0229
3314.00,0.0230
3313.00,0.0230
3312.00,0.0230
3311.00,0.0229
3310.00,0.0228
3309.00,0.0227
3308.00,0.0226
3307.00,0.0226
3306.00,0.0228
3305.00,0.0231
3304.00,0.0235
3303.00,0.0239
3302.00,0.0242
3301.00,0.0245
3300.00,0.0246
3299.00,0.0247
3298.00,0.0247
3297.00,0.0247
3296.00,0.0248
3295.00,0.0248
3294.00,0.0249
3293.00,0.0251
3292.00,0.0253
3291.00,0.0256
3290.00,0.0260
3289.00,0.0263
3288.00,0.0265
3287.00,0.0267
3286.00,0.0268
3285.00,0.0270
3284.00,0.0272
3283.00,0.0274
3282.00,0.0276
3281.00,0.0278
3280.00,0.0279
3279.00,0.0280
3278.00,0.0282
3277.00,0.0283
3276.00,0.0284
3275.00,0.0285
3274.00,0.0285
3273.00,0.0286
3272.00,0.0287
3271.00,0.0289
3270.00,0.0292
3269.00,0.0297
3268.00,0.0301
3267.00,0.0304
3266.00,0.0307
3265.00,0.0309
3264.00,0.0311
3263.00,0.0313
3262.00,0.0315
3261.00,0.0317
3260.00,0.0318
3259.00,0.0319
3258.00,0.0320
3257.00,0.0321
3256.00,0.0323
3255.00,0.0325
3254.00,0.0327
3253.00,0.0329
3252.00,0.0331
3251.00,0.0332
3250.00,0.0333
3249.00,0.0334
3248.00,0.0334
3247.00,0.0336
3246.00,0.0338
3245.00,0.0341
3244.00,0.0344
3243.00,0.0346
3242.00,0.0349
3241.00,0.0350
3240.00,0.0352
3239.00,0.0354
3238.00,0.0355
3237.00,0.0356
3236.00,0.0356
3235.00,0.0357
3234.00,0.0358
3233.00,0.0361
3232.00,0.0365
3231.00,0.0368
3230.00,0.0372
3229.00,0.0375
3228.00,0.0377
3227.00,0.0379
3226.00,0.0382
3225.00,0.0384
3224.00,0.0386
3223.00,0.0389
3222.00,0.0391
3221.00,0.0393
3220.00,0.0395
3219.00,0.0397
3218.00,0.0400
3217.00,0.0402
3216.00,0.0404
3215.00,0.0406
3214.00,0.0409
3213.00,0.0411
3212.00,0.0413
3211.00,0.0416
3210.00,0.0418
3209.00,0.0420
3208.00,0.0423
3207.00,0.0426
3206.00,0.0428
3205.00,0.0431
3204.00,0.0434
3203.00,0.0437
3202.00,0.0439
3201.00,0.0442
3200.00,0.0445
3199.00,0.0448
3198.00,0.0450
3197.00,0.0453
3196.00,0.0456
3195.00,0.0458
3194.00,0.0461
3193.00,0.0463
3192.00,0.0466
3191.00,0.0469
3190.00,0.0471
3189.00,0.0474
3188.00,0.0477
3187.00,0.0480
3186.00,0.0483
3185.00,0.0486
3184.00,0.0489
3183.00,0.0491
3182.00,0.0494
3181.00,0.0497
3180.00,0.0499
3179.00,0.0502
3178.00,0.0505
3177.00,0.0508
3176.00,0.0510
3175.00,0.0513
3174.00,0.0515
3173.00,0.0518
3172.00,0.0521
3171.00,0.0523
3170.00,0.0526
3169.00,0.0528
3168.00,0.0531
3167.00,0.0533
3166.00,0.0536
3165.00,0.0538
3164.00,0.0541
3163.00,0.0544
3162.00,0.0546
3161.00,0.0549
3160.00,0.0552
3159.00,0.0555
3158.00,0.0557
3157.00,0.0559
3156.00,0.0561
3155.00,0.0563
3154.00,0.0564
3153.00,0.0567
3152.00,0.0570
3151.00,0.0574
3150.00,0.0577
3149.00,0.0581
3148.00,0.0584
3147.00,0.0587
3146.00,0.0590
3145.00,0.0593
3144.00,0.0596
3143.00,0.0599
3142.00,0.0601
3141.00,0.0603
3140.00,0.0606
3139.00,0.0609
3138.00,0.0612
3137.00,0.0616
3136.00,0.0620
3135.00,0.0623
3134.00,0.0626
3133.00,0.0629
3132.00,0.0632
3131.00,0.0635
3130.00,0.0638
3129.00,0.0641
3128.00,0.0644
3127.00,0.0647
3126.00,0.0650
3125.00,0.0653
3124.00,0.0655
3123.00,0.0658
3122.00,0.0660
3121.00,0.0662
3120.00,0.0665
3119.00,0.0668
3118.00,0.0672
3117.00,0.0676
3116.00,0.0680
3115.00,0.0685
3114.00,0.0691
3113.00,0.0696
3112.00,0.0702
3111.00,0.0708
3110.00,0.0714
3109.00,0.0722
3108.00,0.0732
3107.00,0.0743
3106.00,0.0755
3105.00,0.0768
3104.00,0.0782
3103.00,0.0794
3102.00,0.0805
3101.00,0.0813
3100.00,0.0818
3099.00,0.0821
3098.00,0.0822
3097.00,0.0821
3096.00,0.0822
3095.00,0.0824
3094.00,0.0830
3093.00,0.0840
3092.00,0.0856
3091.00,0.0880
3090.00,0.0912
3089.00,0.0953
3088.00,0.1000
3087.00,0.1051
3086.00,0.1102
3085.00,0.1147
3084.00,0.1181
3083.00,0.1200
3082.00,0.1201
3081.00,0.1187
3080.00,0.1162
3079.00,0.1133
3078.00,0.1105
3077.00,0.1080
3076.00,0.1059
3075.00,0.1041
3074.00,0.1025
3073.00,0.1012
3072.00,0.1001
3071.00,0.0991
3070.00,0.0982
3069.00,0.0975
3068.00,0.0969
3067.00,0.0964
3066.00,0.0961
3065.00,0.0959
3064.00,0.0958
3063.00,0.0957
3062.00,0.0956
3061.00,0.0956
3060.00,0.0956
3059.00,0.0956
3058.00,0.0956
3057.00,0.0956
3056.00,0.0957
3055.00,0.0957
3054.00,0.0959
3053.00,0.0960
3052.00,0.0961
3051.00,0.0962
3050.00,0.0964
3049.00,0.0965
3048.00,0.0967
3047.00,0.0968
3046.00,0.0970
3045.00,0.0971
3044.00,0.0972
3043.00,0.0973
3042.00,0.0975
3041.00,0.0976
3040.00,0.0977
3039.00,0.0978
3038.00,0.0979
3037.00,0.0980
3036.00,0.0981
3035.00,0.0982
3034.00,0.0983
3033.00,0.0984
3032.00,0.0985
3031.00,0.0987
3030.00,0.0988
3029.00,0.0989
3028.00,0.0991
3027.00,0.0993
3026.00,0.0995
3025.00,0.0997
3024.00,0.0999
3023.00,0.1002
3022.00,0.1004
3021.00,0.1007
3020.00,0.1010
3019.00,0.1012
3018.00,0.1014
3017.00,0.1017
3016.00,0.1020
3015.00,0.1023
3014.00,0.1025
3013.00,0.1028
3012.00,0.1030
3011.00,0.1033
3010.00,0.1036
3009.00,0.1038
3008.00,0.1040
3007.00,0.1042
3006.00,0.1044
3005.00,0.1046
3004.00,0.1048
3003.00,0.1049
3002.00,0.1050
3001.00,0.1051
3000.00,0.1053
2999.00,0.1054
2998.00,0.1055
2997.00,0.1056
2996.00,0.1057
2995.00,0.1058
2994.00,0.1059
2993.00,0.1060
2992.00,0.1061
2991.00,0.1061
2990.00,0.1062
2989.00,0.1062
2988.00,0.1062
2987.00,0.1062
2986.00,0.1062
2985.00,0.1061
2984.00,0.1059
2983.00,0.1057
2982.00,0.1056
2981.00,0.1055
2980.00,0.1054
2979.00,0.1054
2978.00,0.1054
2977.00,0.1054
2976.00,0.1053
2975.00,0.1052
2974.00,0.1051
2973.00,0.1049
2972.00,0.1047
2971.00,0.1045
2970.00,0.1044
2969.00,0.1043
2968.00,0.1043
2967.00,0.1042
2966.00,0.1041
2965.00,0.1040
2964.00,0.1039
2963.00,0.1038
2962.00,0.1038
2961.00,0.1037
2960.00,0.1037
2959.00,0.1036
2958.00,0.1036
2957.00,0.1037
2956.00,0.1037
2955.00,0.1038
2954.00,0.1038
2953.00,0.1039
2952.00,0.1040
2951.00,0.1041
2950.00,0.1041
2949.00,0.1042
2948.00,0.1043
2947.00,0.1044
2946.00,0.1044
2945.00,0.1045
2944.00,0.1045
2943.00,0.1045
2942.00,0.1045
2941.00,0.1045
2940.00,0.1044
2939.00,0.1044
2938.00,0.1043
2937.00,0.1043
2936.00,0.1043
2935.00,0.1043
2934.00,0.1043
2933.00,0.1043
2932.00,0.1044
2931.00,0.1045
2930.00,0.1046
2929.00,0.1048
2928.00,0.1050
2927.00,0.1052
2926.00,0.1055
2925.00,0.1058
2924.00,0.1061
2923.00,0.1065
2922.00,0.1069
2921.00,0.1072
2920.00,0.1076
2919.00,0.1079
2918.00,0.1082
2917.00,0.1085
2916.00,0.1088
2915.00,0.1090
2914.00,0.1092
2913.00,0.1093
2912.00,0.1094
2911.00,0.1095
2910.00,0.1096
2909.00,0.1096
2908.00,0.1096
2907.00,0.1096
2906.00,0.1096
2905.00,0.1095
2904.00,0.1095
2903.00,0.1095
2902.00,0.1095
2901.00,0.1095
2900.00,0.1096
2899.00,0.1096
2898.00,0.1097
2897.00,0.1098
2896.00,0.1099
2895.00,0.1101
2894.00,0.1103
2893.00,0.1105
2892.00,0.1108
2891.00,0.1111
2890.00,0.1114
2889.00,0.1118
2888.00,0.1123
2887.00,0.1127
2886.00,0.1132
2885.00,0.1138
2884.00,0.1144
2883.00,0.1150
2882.00,0.1156
2881.00,0.1163
2880.00,0.1169
2879.00,0.1176
2878.00,0.1182
2877.00,0.1188
2876.00,0.1193
2875.00,0.1197
2874.00,0.1201
2873.00,0.1205
2872.00,0.1209
2871.00,0.1213
2870.00,0.1216
2869.00,0.1219
2868.00,0.1222
2867.00,0.1224
2866.00,0.1225
2865.00,0.1227
2864.00,0.1227
2863.00,0.1228
2862.00,0.1227
2861.00,0.1227
2860.00,0.1227
2859.00,0.1226
2858.00,0.1225
2857.00,0.1224
2856.00,0.1222
2855.00,0.1220
2854.00,0.1219
2853.00,0.1217
2852.00,0.1215
2851.00,0.1213
2850.00,0.1211
2849.00,0.1209
2848.00,0.1208
2847.00,0.1206
2846.00,0.1206
2845.00,0.1205
2844.00,0.1205
2843.00,0.1204
2842.00,0.1204
2841.00,0.1203
2840.00,0.1203
2839.00,0.1204
2838.00,0.1205
2837.00,0.1206
2836.00,0.1208
2835.00,0.1210
2834.00,0.1211
2833.00,0.1213
2832.00,0.1214
2831.00,0.1215
2830.00,0.1215
2829.00,0.1216
2828.00,0.1216
2827.00,0.1216
2826.00,0.1216
2825.00,0.1215
2824.00,0.1215
2823.00,0.1214
2822.00,0.1213
2821.00,0.1212
2820.00,0.1211
2819.00,0.1209
2818.00,0.1207
2817.00,0.1206
2816.00,0.1204
2815.00,0.1201
2814.00,0.1199
2813.00,0.1197
2812.00,0.1195
2811.00,0.1192
2810.00,0.1189
2809.00,0.1186
2808.00,0.1183
2807.00,0.1181
2806.00,0.1178
2805.00,0.1175
2804.00,0.1172
2803.00,0.1168
2802.00,0.1165
2801.00,0.1162
2800.00,0.1158
2799.00,0.1155
2798.00,0.1151
2797.00,0.1148
2796.00,0.1144
2795.00,0.1141
2794.00,0.1138
2793.00,0.1134
2792.00,0.1130
2791.00,0.1126
2790.00,0.1122
2789.00,0.1119
2788.00,0.1115
2787.00,0.1111
2786.00,0.1108
2785.00,0.1104
2784.00,0.1100
2783.00,0.1096
2782.00,0.1092
2781.00,0.1088
2780.00,0.1084
2779.00,0.1079
2778.00,0.1075
2777.00,0.1070
2776.00,0.1066
2775.00,0.1062
2774.00,0.1058
2773.00,0.1053
2772.00,0.1049
2771.00,0.1045
2770.00,0.1041
2769.00,0.1037
2768.00,0.1033
2767.00,0.1029
2766.00,0.1026
2765.00,0.1022
2764.00,0.1019
2763.00,0.1015
2762.00,0.1012
2761.00,0.1009
2760.00,0.1006
2759.00,0.1003
2758.00,0.1001
2757.00,0.0998
2756.00,0.0996
2755.00,0.0994
2754.00,0.0992
2753.00,0.0990
2752.00,0.0988
2751.00,0.0986
2750.00,0.0984
2749.00,0.0982
2748.00,0.0980
2747.00,0.0978
2746.00,0.0976
2745.00,0.0973
2744.00,0.0971
2743.00,0.0969
2742.00,0.0967
2741.00,0.0965
2740.00,0.0963
2739.00,0.0961
2738.00,0.0959
2737.00,0.0958
2736.00,0.0957
2735.00,0.0956
2734.00,0.0956
2733.00,0.0956
2732.00,0.0956
2731.00,0.0957
2730.00,0.0958
2729.00,0.0959
2728.00,0.0961
2727.00,0.0962
2726.00,0.0964
2725.00,0.0966
2724.00,0.0968
2723.00,0.0970
2722.00,0.0972
2721.00,0.0974
2720.00,0.0976
2719.00,0.0978
2718.00,0.0981
2717.00,0.0983
2716.00,0.0985
2715.00,0.0988
2714.00,0.0991
2713.00,0.0995
2712.00,0.0999
2711.00,0.1003
2710.00,0.1007
2709.00,0.1011
2708.00,0.1016
2707.00,0.1021
2706.00,0.1026
2705.00,0.1031
2704.00,0.1036
2703.00,0.1041
2702.00,0.1046
2701.00,0.1052
2700.00,0.1057
2699.00,0.1062
2698.00,0.1066
2697.00,0.1071
2696.00,0.1074
2695.00,0.1078
2694.00,0.1081
2693.00,0.1083
2692.00,0.1085
2691.00,0.1087
2690.00,0.1089
2689.00,0.1091
2688.00,0.1093
2687.00,0.1094
2686.00,0.1095
2685.00,0.1097
2684.00,0.1098
2683.00,0.1099
2682.00,0.1100
2681.00,0.1101
2680.00,0.1102
2679.00,0.1103
2678.00,0.1103
2677.00,0.1103
2676.00,0.1103
2675.00,0.1103
2674.00,0.1103
2673.00,0.1103
2672.00,0.1104
2671.00,0.1105
2670.00,0.1105
2669.00,0.1107
2668.00,0.1108
2667.00,0.1110
2666.00,0.1112
2665.00,0.1114
2664.00,0.1116
2663.00,0.1118
2662.00,0.1120
2661.00,0.1121
2660.00,0.1122
2659.00,0.1122
2658.00,0.1122
2657.00,0.1122
2656.00,0.1121
2655.00,0.1120
2654.00,0.1118
2653.00,0.1115
2652.00,0.1112
2651.00,0.1108
2650.00,0.1104
2649.00,0.1100
2648.00,0.1096
2647.00,0.1091
2646.00,0.1086
2645.00,0.1081
2644.00,0.1076
2643.00,0.1071
2642.00,0.1066
2641.00,0.1060
2640.00,0.1055
2639.00,0.1050
2638.00,0.1045
2637.00,0.1040
2636.00,0.1035
2635.00,0.1030
2634.00,0.1025
2633.00,0.1021
2632.00,0.1016
2631.00,0.1011
2630.00,0.1006
2629.00,0.1001
2628.00,0.0996
2627.00,0.0990
2626.00,0.0985
2625.00,0.0981
2624.00,0.0976
2623.00,0.0971
2622.00,0.0966
2621.00,0.0961
2620.00,0.0957
2619.00,0.0952
2618.00,0.0948
2617.00,0.0945
2616.00,0.0942
2615.00,0.0939
2614.00,0.0937
2613.00,0.0936
2612.00,0.0934
2611.00,0.0933
2610.00,0.0932
2609.00,0.0931
2608.00,0.0931
2607.00,0.0930
2606.00,0.0929
2605.00,0.0928
2604.00,0.0928
2603.00,0.0927
2602.00,0.0927
2601.00,0.0927
2600.00,0.0927
2599.00,0.0927
2598.00,0.0927
2597.00,0.0928
2596.00,0.0930
2595.00,0.0932
2594.00,0.0935
2593.00,0.0940
2592.00,0.0946
2591.00,0.0954
2590.00,0.0962
2589.00,0.0970
2588.00,0.0980
2587.00,0.0990
2586.00,0.0999
2585.00,0.1008
2584.00,0.1016
2583.00,0.1023
2582.00,0.1028
2581.00,0.1032
2580.00,0.1035
2579.00,0.1036
2578.00,0.1037
2577.00,0.1036
2576.00,0.1035
2575.00,0.1034
2574.00,0.1032
2573.00,0.1030
2572.00,0.1028
2571.00,0.1025
2570.00,0.1022
2569.00,0.1019
2568.00,0.1017
2567.00,0.1016
2566.00,0.1015
2565.00,0.1015
2564.00,0.1016
2563.00,0.1016
2562.00,0.1017
2561.00,0.1017
2560.00,0.1017
2559.00,0.1016
2558.00,0.1015
2557.00,0.1013
2556.00,0.1011
2555.00,0.1010
2554.00,0.1010
2553.00,0.1010
2552.00,0.1010
2551.00,0.1012
2550.00,0.1015
2549.00,0.1019
2548.00,0.1025
2547.00,0.1032
2546.00,0.1040
2545.00,0.1050
2544.00,0.1061
2543.00,0.1073
2542.00,0.1085
2541.00,0.1097
2540.00,0.1109
2539.00,0.1120
2538.00,0.1130
2537.00,0.1139
2536.00,0.1146
2535.00,0.1151
2534.00,0.1154
2533.00,0.1155
2532.00,0.1155
2531.00,0.1155
2530.00,0.1153
2529.00,0.1151
2528.00,0.1149
2527.00,0.1146
2526.00,0.1143
2525.00,0.1141
2524.00,0.1139
2523.00,0.1138
2522.00,0.1137
2521.00,0.1136
2520.00,0.1136
2519.00,0.1136
2518.00,0.1136
2517.00,0.1136
2516.00,0.1136
2515.00,0.1136
2514.00,0.1136
2513.00,0.1134
2512.00,0.1133
2511.00,0.1130
2510.00,0.1128
2509.00,0.1125
2508.00,0.1121
2507.00,0.1117
2506.00,0.1113
2505.00,0.1109
2504.00,0.1104
2503.00,0.1098
2502.00,0.1092
2501.00,0.1085
2500.00,0.1079
2499.00,0.1072
2498.00,0.1066
2497.00,0.1060
2496.00,0.1054
2495.00,0.1047
2494.00,0.1040
2493.00,0.1034
2492.00,0.1028
2491.00,0.1022
2490.00,0.1016
2489.00,0.1011
2488.00,0.1005
2487.00,0.1000
2486.00,0.0995
2485.00,0.0990
2484.00,0.0985
2483.00,0.0980
2482.00,0.0976
2481.00,0.0971
2480.00,0.0967
2479.00,0.0962
2478.00,0.0958
2477.00,0.0953
2476.00,0.0949
2475.00,0.0944
2474.00,0.0939
2473.00,0.0934
2472.00,0.0930
2471.00,0.0924
2470.00,0.0919
2469.00,0.0914
2468.00,0.0909
2467.00,0.0904
2466.00,0.0899
2465.00,0.0895
2464.00,0.0891
2463.00,0.0886
2462.00,0.0882
2461.00,0.0877
2460.00,0.0873
2459.00,0.0868
2458.00,0.0864
2457.00,0.0859
2456.00,0.0855
2455.00,0.0851
2454.00,0.0847
2453.00,0.0844
2452.00,0.0840
2451.00,0.0836
2450.00,0.0832
2449.00,0.0828
2448.00,0.0825
2447.00,0.0821
2446.00,0.0817
2445.00,0.0813
2444.00,0.0810
2443.00,0.0806
2442.00,0.0803
2441.00,0.0799
2440.00,0.0796
2439.00,0.0793
2438.00,0.0789
2437.00,0.0786
2436.00,0.0783
2435.00,0.0780
2434.00,0.0777
2433.00,0.0773
2432.00,0.0770
2431.00,0.0767
2430.00,0.0764
2429.00,0.0761
2428.00,0.0759
2427.00,0.0756
2426.00,0.0753
2425.00,0.0750
2424.00,0.0747
2423.00,0.0745
2422.00,0.0742
2421.00,0.0740
2420.00,0.0738
2419.00,0.0735
2418.00,0.0733
2417.00,0.0730
2416.00,0.0728
2415.00,0.0726
2414.00,0.0724
2413.00,0.0721
2412.00,0.0718
2411.00,0.0716
2410.00,0.0713
2409.00,0.0710
2408.00,0.0707
2407.00,0.0705
2406.00,0.0703
2405.00,0.0700
2404.00,0.0699
2403.00,0.0697
2402.00,0.0694
2401.00,0.0692
2400.00,0.0690
2399.00,0.0688
2398.00,0.0686
2397.00,0.0684
2396.00,0.0682
2395.00,0.0680
2394.00,0.0678
2393.00,0.0676
2392.00,0.0674
2391.00,0.0672
2390.00,0.0671
2389.00,0.0669
2388.00,0.0668
2387.00,0.0666
2386.00,0.0664
2385.00,0.0662
2384.00,0.0660
2383.00,0.0658
2382.00,0.0656
2381.00,0.0653
2380.00,0.0651
2379.00,0.0649
2378.00,0.0646
2377.00,0.0645
2376.00,0.0644
2375.00,0.0643
2374.00,0.0642
2373.00,0.0640
2372.00,0.0639
2371.00,0.0637
2370.00,0.0635
2369.00,0.0633
2368.00,0.0632
2367.00,0.0630
2366.00,0.0628
2365.00,0.0626
2364.00,0.0624
2363.00,0.0623
2362.00,0.0622
2361.00,0.0621
2360.00,0.0620
2359.00,0.0619
2358.00,0.0618
2357.00,0.0617
2356.00,0.0616
2355.00,0.0615
2354.00,0.0615
2353.00,0.0614
2352.00,0.0612
2351.00,0.0610
2350.00,0.0607
2349.00,0.0604
2348.00,0.0601
2347.00,0.0597
2346.00,0.0594
2345.00,0.0591
2344.00,0.0589
2343.00,0.0588
2342.00,0.0587
2341.00,0.0586
2340.00,0.0586
2339.00,0.0585
2338.00,0.0585
2337.00,0.0584
2336.00,0.0583
2335.00,0.0582
2334.00,0.0581
2333.00,0.0580
2332.00,0.0578
2331.00,0.0577
2330.00,0.0576
2329.00,0.0576
2328.00,0.0578
2327.00,0.0579
2326.00,0.0580
2325.00,0.0579
2324.00,0.0577
2323.00,0.0573
2322.00,0.0570
2321.00,0.0567
2320.00,0.0565
2319.00,0.0563
2318.00,0.0561
2317.00,0.0559
2316.00,0.0557
2315.00,0.0555
2314.00,0.0552
2313.00,0.0549
2312.00,0.0547
2311.00,0.0545
2310.00,0.0543
2309.00,0.0541
2308.00,0.0540
2307.00,0.0538
2306.00,0.0537
2305.00,0.0535
2304.00,0.0534
2303.00,0.0533
2302.00,0.0532
2301.00,0.0531
2300.00,0.0530
2299.00,0.0529
2298.00,0.0528
2297.00,0.0528
2296.00,0.0528
2295.00,0.0527
2294.00,0.0528
2293.00,0.0528
2292.00,0.0529
2291.00,0.0529
2290.00,0.0528
2289.00,0.0527
2288.00,0.0527
2287.00,0.0525
2286.00,0.0524
2285.00,0.0522
2284.00,0.0520
2283.00,0.0518
2282.00,0.0516
2281.00,0.0514
2280.00,0.0512
2279.00,0.0509
2278.00,0.0507
2277.00,0.0505
2276.00,0.0504
2275.00,0.0502
2274.00,0.0501
2273.00,0.0501
2272.00,0.0501
2271.00,0.0500
2270.00,0.0500
2269.00,0.0499
2268.00,0.0499
2267.00,0.0499
2266.00,0.0499
2265.00,0.0499
2264.00,0.0501
2263.00,0.0502
2262.00,0.0503
2261.00,0.0504
2260.00,0.0506
2259.00,0.0507
2258.00,0.0507
2257.00,0.0507
2256.00,0.0508
2255.00,0.0509
2254.00,0.0510
2253.00,0.0511
2252.00,0.0513
2251.00,0.0514
2250.00,0.0514
2249.00,0.0515
2248.00,0.0516
2247.00,0.0516
2246.00,0.0516
2245.00,0.0515
2244.00,0.0514
2243.00,0.0513
2242.00,0.0510
2241.00,0.0509
2240.00,0.0507
2239.00,0.0505
2238.00,0.0501
2237.00,0.0498
2236.00,0.0495
2235.00,0.0492
2234.00,0.0489
2233.00,0.0487
2232.00,0.0486
2231.00,0.0484
2230.00,0.0481
2229.00,0.0480
2228.00,0.0478
2227.00,0.0475
2226.00,0.0472
2225.00,0.0470
2224.00,0.0469
2223.00,0.0468
2222.00,0.0465
2221.00,0.0463
2220.00,0.0461
2219.00,0.0459
2218.00,0.0456
2217.00,0.0455
2216.00,0.0453
2215.00,0.0452
2214.00,0.0450
2213.00,0.0450
2212.00,0.0449
2211.00,0.0448
2210.00,0.0446
2209.00,0.0444
2208.00,0.0442
2207.00,0.0440
2206.00,0.0437
2205.00,0.0435
2204.00,0.0434
2203.00,0.0433
2202.00,0.0432
2201.00,0.0432
2200.00,0.0432
2199.00,0.0433
2198.00,0.0433
2197.00,0.0433
2196.00,0.0434
2195.00,0.0435
2194.00,0.0436
2193.00,0.0437
2192.00,0.0438
2191.00,0.0438
2190.00,0.0437
2189.00,0.0437
2188.00,0.0437
2187.00,0.0436
2186.00,0.0434
2185.00,0.0433
2184.00,0.0432
2183.00,0.0429
2182.00,0.0426
2181.00,0.0425
2180.00,0.0425
2179.00,0.0424
2178.00,0.0421
2177.00,0.0418
2176.00,0.0417
2175.00,0.0416
2174.00,0.0415
2173.00,0.0416
2172.00,0.0417
2171.00,0.0416
2170.00,0.0415
2169.00,0.0413
2168.00,0.0412
2167.00,0.0410
2166.00,0.0407
2165.00,0.0405
2164.00,0.0405
2163.00,0.0404
2162.00,0.0397
2161.00,0.0387
2160.00,0.0375
2159.00,0.0364
2158.00,0.0357
2157.00,0.0357
2156.00,0.0359
2155.00,0.0362
2154.00,0.0362
2153.00,0.0363
2152.00,0.0363
2151.00,0.0363
2150.00,0.0363
2149.00,0.0363
2148.00,0.0363
2147.00,0.0362
2146.00,0.0361
2145.00,0.0360
2144.00,0.0361
2143.00,0.0361
2142.00,0.0360
2141.00,0.0359
2140.00,0.0358
2139.00,0.0357
2138.00,0.0354
2137.00,0.0352
2136.00,0.0350
2135.00,0.0350
2134.00,0.0349
2133.00,0.0350
2132.00,0.0350
2131.00,0.0351
2130.00,0.0351
2129.00,0.0351
2128.00,0.0352
2127.00,0.0352
2126.00,0.0353
2125.00,0.0354
2124.00,0.0355
2123.00,0.0355
2122.00,0.0355
2121.00,0.0354
2120.00,0.0354
2119.00,0.0354
2118.00,0.0354
2117.00,0.0354
2116.00,0.0354
2115.00,0.0353
2114.00,0.0352
2113.00,0.0351
2112.00,0.0350
2111.00,0.0350
2110.00,0.0349
2109.00,0.0348
2108.00,0.0347
2107.00,0.0347
2106.00,0.0346
2105.00,0.0345
2104.00,0.0344
2103.00,0.0344
2102.00,0.0343
2101.00,0.0342
2100.00,0.0342
2099.00,0.0342
2098.00,0.0341
2097.00,0.0340
2096.00,0.0339
2095.00,0.0338
2094.00,0.0337
2093.00,0.0337
2092.00,0.0339
2091.00,0.0340
2090.00,0.0340
2089.00,0.0340
2088.00,0.0340
2087.00,0.0341
2086.00,0.0341
2085.00,0.0341
2084.00,0.0341
2083.00,0.0340
2082.00,0.0339
2081.00,0.0338
2080.00,0.0338
2079.00,0.0338
2078.00,0.0336
2077.00,0.0335
2076.00,0.0334
2075.00,0.0333
2074.00,0.0331
2073.00,0.0330
2072.00,0.0328
2071.00,0.0326
2070.00,0.0324
2069.00,0.0322
2068.00,0.0322
2067.00,0.0320
2066.00,0.0318
2065.00,0.0316
2064.00,0.0315
2063.00,0.0314
2062.00,0.0313
2061.00,0.0313
2060.00,0.0313
2059.00,0.0312
2058.00,0.0310
2057.00,0.0309
2056.00,0.0308
2055.00,0.0308
2054.00,0.0308
2053.00,0.0309
2052.00,0.0311
2051.00,0.0310
2050.00,0.0306
2049.00,0.0303
2048.00,0.0300
2047.00,0.0297
2046.00,0.0294
2045.00,0.0292
2044.00,0.0291
2043.00,0.0291
2042.00,0.0290
2041.00,0.0290
2040.00,0.0291
2039.00,0.0290
2038.00,0.0287
2037.00,0.0284
2036.00,0.0282
2035.00,0.0279
2034.00,0.0275
2033.00,0.0272
2032.00,0.0271
2031.00,0.0269
2030.00,0.0266
2029.00,0.0263
2028.00,0.0262
2027.00,0.0259
2026.00,0.0254
2025.00,0.0250
2024.00,0.0249
2023.00,0.0249
2022.00,0.0248
2021.00,0.0250
2020.00,0.0251
2019.00,0.0251
2018.00,0.0249
2017.00,0.0248
2016.00,0.0249
2015.00,0.0251
2014.00,0.0251
2013.00,0.0251
2012.00,0.0252
2011.00,0.0254
2010.00,0.0254
2009.00,0.0254
2008.00,0.0253
2007.00,0.0252
2006.00,0.0251
2005.00,0.0253
2004.00,0.0256
2003.00,0.0257
2002.00,0.0257
2001.00,0.0257
2000.00,0.0260
1999.00,0.0261
1998.00,0.0262
1997.00,0.0265
1996.00,0.0268
1995.00,0.0271
1994.00,0.0273
1993.00,0.0276
1992.00,0.0279
1991.00,0.0281
1990.00,0.0281
1989.00,0.0280
1988.00,0.0281
1987.00,0.0283
1986.00,0.0284
1985.00,0.0286
1984.00,0.0289
1983.00,0.0292
1982.00,0.0293
1981.00,0.0293
1980.00,0.0292
1979.00,0.0287
1978.00,0.0281
1977.00,0.0277
1976.00,0.0277
1975.00,0.0277
1974.00,0.0275
1973.00,0.0273
1972.00,0.0273
1971.00,0.0272
1970.00,0.0269
1969.00,0.0268
1968.00,0.0268
1967.00,0.0268
1966.00,0.0268
1965.00,0.0268
1964.00,0.0270
1963.00,0.0269
1962.00,0.0267
1961.00,0.0266
1960.00,0.0266
1959.00,0.0265
1958.00,0.0265
1957.00,0.0266
1956.00,0.0269
1955.00,0.0271
1954.00,0.0272
1953.00,0.0274
1952.00,0.0275
1951.00,0.0275
1950.00,0.0274
1949.00,0.0274
1948.00,0.0277
1947.00,0.0279
1946.00,0.0280
1945.00,0.0282
1944.00,0.0285
1943.00,0.0286
1942.00,0.0287
1941.00,0.0288
1940.00,0.0289
1939.00,0.0291
1938.00,0.0291
1937.00,0.0292
1936.00,0.0295
1935.00,0.0296
1934.00,0.0298
1933.00,0.0299
1932.00,0.0302
1931.00,0.0304
1930.00,0.0305
1929.00,0.0306
1928.00,0.0309
1927.00,0.0312
1926.00,0.0314
1925.00,0.0317
1924.00,0.0321
1923.00,0.0324
1922.00,0.0326
1921.00,0.0328
1920.00,0.0330
1919.00,0.0332
1918.00,0.0331
1917.00,0.0330
1916.00,0.0328
1915.00,0.0326
1914.00,0.0323
1913.00,0.0322
1912.00,0.0320
1911.00,0.0319
1910.00,0.0317
1909.00,0.0316
1908.00,0.0315
1907.00,0.0315
1906.00,0.0314
1905.00,0.0313
1904.00,0.0314
1903.00,0.0314
1902.00,0.0313
1901.00,0.0313
1900.00,0.0314
1899.00,0.0314
1898.00,0.0315
1897.00,0.0316
1896.00,0.0318
1895.00,0.0320
1894.00,0.0322
1893.00,0.0324
1892.00,0.0328
1891.00,0.0330
1890.00,0.0333
1889.00,0.0335
1888.00,0.0338
1887.00,0.0339
1886.00,0.0340
1885.00,0.0340
1884.00,0.0341
1883.00,0.0340
1882.00,0.0338
1881.00,0.0336
1880.00,0.0333
1879.00,0.0330
1878.00,0.0326
1877.00,0.0322
1876.00,0.0318
1875.00,0.0314
1874.00,0.0311
1873.00,0.0308
1872.00,0.0307
1871.00,0.0306
1870.00,0.0304
1869.00,0.0302
1868.00,0.0300
1867.00,0.0297
1866.00,0.0294
1865.00,0.0291
1864.00,0.0290
1863.00,0.0289
1862.00,0.0287
1861.00,0.0286
1860.00,0.0286
1859.00,0.0285
1858.00,0.0284
1857.00,0.0284
1856.00,0.0285
1855.00,0.0285
1854.00,0.0285
1853.00,0.0285
1852.00,0.0286
1851.00,0.0286
1850.00,0.0286
1849.00,0.0286
1848.00,0.0287
1847.00,0.0289
1846.00,0.0290
1845.00,0.0292
1844.00,0.0293
1843.00,0.0293
1842.00,0.0291
1841.00,0.0290
1840.00,0.0290
1839.00,0.0289
1838.00,0.0288
1837.00,0.0288
1836.00,0.0288
1835.00,0.0288
1834.00,0.0287
1833.00,0.0288
1832.00,0.0290
1831.00,0.0292
1830.00,0.0292
1829.00,0.0292
1828.00,0.0292
1827.00,0.0291
1826.00,0.0290
1825.00,0.0290
1824.00,0.0289
1823.00,0.0288
1822.00,0.0287
1821.00,0.0286
1820.00,0.0285
1819.00,0.0285
1818.00,0.0284
1817.00,0.0285
1816.00,0.0286
1815.00,0.0287
1814.00,0.0288
1813.00,0.0288
1812.00,0.0290
1811.00,0.0291
1810.00,0.0291
1809.00,0.0291
1808.00,0.0292
1807.00,0.0292
1806.00,0.0292
1805.00,0.0292
1804.00,0.0294
1803.00,0.0295
1802.00,0.0295
1801.00,0.0297
1800.00,0.0297
1799.00,0.0297
1798.00,0.0295
1797.00,0.0294
1796.00,0.0294
1795.00,0.0296
1794.00,0.0297
1793.00,0.0298
1792.00,0.0299
1791.00,0.0297
1790.00,0.0294
1789.00,0.0292
1788.00,0.0291
1787.00,0.0290
1786.00,0.0289
1785.00,0.0289
1784.00,0.0289
1783.00,0.0289
1782.00,0.0288
1781.00,0.0287
1780.00,0.0287
1779.00,0.0286
1778.00,0.0284
1777.00,0.0284
1776.00,0.0284
1775.00,0.0284
1774.00,0.0285
1773.00,0.0288
1772.00,0.0290
1771.00,0.0291
1770.00,0.0289
1769.00,0.0287
1768.00,0.0286
1767.00,0.0286
1766.00,0.0285
1765.00,0.0286
1764.00,0.0288
1763.00,0.0291
1762.00,0.0292
1761.00,0.0293
1760.00,0.0295
1759.00,0.0296
1758.00,0.0297
1757.00,0.0300
1756.00,0.0303
1755.00,0.0304
1754.00,0.0305
1753.00,0.0307
1752.00,0.0312
1751.00,0.0319
1750.00,0.0325
1749.00,0.0331
1748.00,0.0337
1747.00,0.0342
1746.00,0.0346
1745.00,0.0351
1744.00,0.0358
1743.00,0.0365
1742.00,0.0372
1741.00,0.0379
1740.00,0.0387
1739.00,0.0394
1738.00,0.0399
1737.00,0.0406
1736.00,0.0416
1735.00,0.0431
1734.00,0.0449
1733.00,0.0470
1732.00,0.0492
1731.00,0.0517
1730.00,0.0542
1729.00,0.0572
1728.00,0.0606
1727.00,0.0641
1726.00,0.0679
1725.00,0.0720
1724.00,0.0767
1723.00,0.0815
1722.00,0.0861
1721.00,0.0907
1720.00,0.0956
1719.00,0.1010
1718.00,0.1071
1717.00,0.1139
1716.00,0.1206
1715.00,0.1267
1714.00,0.1321
1713.00,0.1371
1712.00,0.1419
1711.00,0.1466
1710.00,0.1510
1709.00,0.1555
1708.00,0.1601
1707.00,0.1649
1706.00,0.1701
1705.00,0.1754
1704.00,0.1803
1703.00,0.1848
1702.00,0.1904
1701.00,0.1984
1700.00,0.2078
1699.00,0.2153
1698.00,0.2207
1697.00,0.2266
1696.00,0.2349
1695.00,0.2443
1694.00,0.2522
1693.00,0.2584
1692.00,0.2642
1691.00,0.2706
1690.00,0.2774
1689.00,0.2841
1688.00,0.2899
1687.00,0.2949
1686.00,0.3008
1685.00,0.3091
1684.00,0.3193
1683.00,0.3277
1682.00,0.3329
1681.00,0.3367
1680.00,0.3407
1679.00,0.3448
1678.00,0.3487
1677.00,0.3528
1676.00,0.3578
1675.00,0.3632
1674.00,0.3675
1673.00,0.3703
1672.00,0.3728
1671.00,0.3761
1670.00,0.3802
1669.00,0.3843
1668.00,0.3876
1667.00,0.3897
1666.00,0.3910
1665.00,0.3923
1664.00,0.3942
1663.00,0.3964
1662.00,0.3979
1661.00,0.3982
1660.00,0.3974
1659.00,0.3961
1658.00,0.3941
1657.00,0.3914
1656.00,0.3882
1655.00,0.3851
1654.00,0.3826
1653.00,0.3802
1652.00,0.3769
1651.00,0.3731
1650.00,0.3690
1649.00,0.3648
1648.00,0.3610
1647.00,0.3577
1646.00,0.3546
1645.00,0.3511
1644.00,0.3475
1643.00,0.3440
1642.00,0.3405
1641.00,0.3371
1640.00,0.3337
1639.00,0.3305
1638.00,0.3273
1637.00,0.3243
1636.00,0.3215
1635.00,0.3184
1634.00,0.3147
1633.00,0.3103
1632.00,0.3059
1631.00,0.3016
1630.00,0.2975
1629.00,0.2933
1628.00,0.2891
1627.00,0.2848
1626.00,0.2807
1625.00,0.2765
1624.00,0.2724
1623.00,0.2682
1622.00,0.2640
1621.00,0.2597
1620.00,0.2555
1619.00,0.2514
1618.00,0.2477
1617.00,0.2441
1616.00,0.2407
1615.00,0.2375
1614.00,0.2342
1613.00,0.2307
1612.00,0.2274
1611.00,0.2242
1610.00,0.2213
1609.00,0.2183
1608.00,0.2154
1607.00,0.2127
1606.00,0.2100
1605.00,0.2074
1604.00,0.2049
1603.00,0.2025
1602.00,0.2003
1601.00,0.1980
1600.00,0.1957
1599.00,0.1935
1598.00,0.1914
1597.00,0.1893
1596.00,0.1873
1595.00,0.1854
1594.00,0.1836
1593.00,0.1819
1592.00,0.1802
1591.00,0.1787
1590.00,0.1774
1589.00,0.1762
1588.00,0.1751
1587.00,0.1742
1586.00,0.1733
1585.00,0.1722
1584.00,0.1709
1583.00,0.1695
1582.00,0.1680
1581.00,0.1662
1580.00,0.1642
1579.00,0.1619
1578.00,0.1596
1577.00,0.1575
1576.00,0.1558
1575.00,0.1543
1574.00,0.1526
1573.00,0.1507
1572.00,0.1486
1571.00,0.1468
1570.00,0.1451
1569.00,0.1431
1568.00,0.1410
1567.00,0.1389
1566.00,0.1369
1565.00,0.1350
1564.00,0.1331
1563.00,0.1312
1562.00,0.1295
1561.00,0.1282
1560.00,0.1274
1559.00,0.1268
1558.00,0.1255
1557.00,0.1232
1556.00,0.1206
1555.00,0.1180
1554.00,0.1158
1553.00,0.1138
1552.00,0.1118
1551.00,0.1101
1550.00,0.1084
1549.00,0.1068
1548.00,0.1052
1547.00,0.1038
1546.00,0.1026
1545.00,0.1015
1544.00,0.1004
1543.00,0.0995
1542.00,0.0986
1541.00,0.0975
1540.00,0.0965
1539.00,0.0956
1538.00,0.0947
1537.00,0.0938
1536.00,0.0931
1535.00,0.0925
1534.00,0.0922
1533.00,0.0917
1532.00,0.0910
1531.00,0.0902
1530.00,0.0894
1529.00,0.0888
1528.00,0.0881
1527.00,0.0875
1526.00,0.0869
1525.00,0.0862
1524.00,0.0853
1523.00,0.0843
1522.00,0.0833
1521.00,0.0826
1520.00,0.0819
1519.00,0.0812
1518.00,0.0804
1517.00,0.0794
1516.00,0.0784
1515.00,0.0775
1514.00,0.0766
1513.00,0.0758
1512.00,0.0751
1511.00,0.0745
1510.00,0.0738
1509.00,0.0731
1508.00,0.0724
1507.00,0.0720
1506.00,0.0715
1505.00,0.0703
1504.00,0.0690
1503.00,0.0678
1502.00,0.0668
1501.00,0.0659
1500.00,0.0652
1499.00,0.0643
1498.00,0.0633
1497.00,0.0619
1496.00,0.0606
1495.00,0.0593
1494.00,0.0582
1493.00,0.0571
1492.00,0.0560
1491.00,0.0548
1490.00,0.0536
1489.00,0.0522
1488.00,0.0508
1487.00,0.0493
1486.00,0.0479
1485.00,0.0464
1484.00,0.0451
1483.00,0.0440
1482.00,0.0429
1481.00,0.0419
1480.00,0.0411
1479.00,0.0403
1478.00,0.0397
1477.00,0.0391
1476.00,0.0384
1475.00,0.0378
1474.00,0.0371
1473.00,0.0365
1472.00,0.0359
1471.00,0.0352
1470.00,0.0345
1469.00,0.0339
1468.00,0.0335
1467.00,0.0334
1466.00,0.0333
1465.00,0.0331
1464.00,0.0327
1463.00,0.0324
1462.00,0.0322
1461.00,0.0322
1460.00,0.0324
1459.00,0.0328
1458.00,0.0334
1457.00,0.0343
1456.00,0.0354
1455.00,0.0365
1454.00,0.0376
1453.00,0.0388
1452.00,0.0402
1451.00,0.0419
1450.00,0.0442
1449.00,0.0473
1448.00,0.0511
1447.00,0.0555
1446.00,0.0602
1445.00,0.0653
1444.00,0.0710
1443.00,0.0773
1442.00,0.0843
1441.00,0.0919
1440.00,0.1002
1439.00,0.1094
1438.00,0.1206
1437.00,0.1346
1436.00,0.1499
1435.00,0.1643
1434.00,0.1774
1433.00,0.1906
1432.00,0.2044
1431.00,0.2185
1430.00,0.2321
1429.00,0.2449
1428.00,0.2559
1427.00,0.2646
1426.00,0.2717
1425.00,0.2775
1424.00,0.2818
1423.00,0.2838
1422.00,0.2837
1421.00,0.2825
1420.00,0.2805
1419.00,0.2773
1418.00,0.2736
1417.00,0.2701
1416.00,0.2668
1415.00,0.2638
1414.00,0.2613
1413.00,0.2594
1412.00,0.2578
1411.00,0.2558
1410.00,0.2533
1409.00,0.2505
1408.00,0.2471
1407.00,0.2427
1406.00,0.2377
1405.00,0.2324
1404.00,0.2267
1403.00,0.2209
1402.00,0.2151
1401.00,0.2097
1400.00,0.2043
1399.00,0.1987
1398.00,0.1934
1397.00,0.1884
1396.00,0.1837
1395.00,0.1789
1394.00,0.1743
1393.00,0.1700
1392.00,0.1659
1391.00,0.1620
1390.00,0.1584
1389.00,0.1551
1388.00,0.1518
1387.00,0.1485
1386.00,0.1454
1385.00,0.1425
1384.00,0.1395
1383.00,0.1365
1382.00,0.1337
1381.00,0.1309
1380.00,0.1280
1379.00,0.1252
1378.00,0.1224
1377.00,0.1197
1376.00,0.1170
1375.00,0.1143
1374.00,0.1116
1373.00,0.1090
1372.00,0.1064
1371.00,0.1038
1370.00,0.1014
1369.00,0.0991
1368.00,0.0969
1367.00,0.0947
1366.00,0.0926
1365.00,0.0907
1364.00,0.0887
1363.00,0.0867
1362.00,0.0849
1361.00,0.0831
1360.00,0.0814
1359.00,0.0797
1358.00,0.0781
1357.00,0.0767
1356.00,0.0753
1355.00,0.0740
1354.00,0.0728
1353.00,0.0717
1352.00,0.0706
1351.00,0.0695
1350.00,0.0684
1349.00,0.0674
1348.00,0.0664
1347.00,0.0655
1346.00,0.0645
1345.00,0.0636
1344.00,0.0627
1343.00,0.0618
1342.00,0.0610
1341.00,0.0602
1340.00,0.0595
1339.00,0.0590
1338.00,0.0587
1337.00,0.0587
1336.00,0.0590
1335.00,0.0596
1334.00,0.0607
1333.00,0.0624
1332.00,0.0648
1331.00,0.0682
1330.00,0.0726
1329.00,0.0782
1328.00,0.0851
1327.00,0.0931
1326.00,0.1020
1325.00,0.1116
1324.00,0.1212
1323.00,0.1300
1322.00,0.1375
1321.00,0.1428
1320.00,0.1458
1319.00,0.1463
1318.00,0.1448
1317.00,0.1417
1316.00,0.1377
1315.00,0.1331
1314.00,0.1285
1313.00,0.1238
1312.00,0.1191
1311.00,0.1145
1310.00,0.1099
1309.00,0.1053
1308.00,0.1007
1307.00,0.0962
1306.00,0.0919
1305.00,0.0880
1304.00,0.0847
1303.00,0.0821
1302.00,0.0805
1301.00,0.0801
1300.00,0.0808
1299.00,0.0827
1298.00,0.0856
1297.00,0.0893
1296.00,0.0937
1295.00,0.0986
1294.00,0.1041
1293.00,0.1102
1292.00,0.1171
1291.00,0.1250
1290.00,0.1342
1289.00,0.1449
1288.00,0.1572
1287.00,0.1712
1286.00,0.1867
1285.00,0.2037
1284.00,0.2219
1283.00,0.2408
1282.00,0.2604
1281.00,0.2804
1280.00,0.3008
1279.00,0.3214
1278.00,0.3421
1277.00,0.3625
1276.00,0.3818
1275.00,0.3988
1274.00,0.4122
1273.00,0.4212
1272.00,0.4250
1271.00,0.4236
1270.00,0.4176
1269.00,0.4079
1268.00,0.3953
1267.00,0.3806
1266.00,0.3646
1265.00,0.3480
1264.00,0.3311
1263.00,0.3140
1262.00,0.2970
1261.00,0.2801
1260.00,0.2634
1259.00,0.2469
1258.00,0.2309
1257.00,0.2155
1256.00,0.2008
1255.00,0.1868
1254.00,0.1739
1253.00,0.1622
1252.00,0.1519
1251.00,0.1433
1250.00,0.1366
1249.00,0.1319
1248.00,0.1289
1247.00,0.1278
1246.00,0.1285
1245.00,0.1314
1244.00,0.1366
1243.00,0.1445
1242.00,0.1552
1241.00,0.1686
1240.00,0.1845
1239.00,0.2025
1238.00,0.2220
1237.00,0.2423
1236.00,0.2625
1235.00,0.2817
1234.00,0.2994
1233.00,0.3148
1232.00,0.3275
1231.00,0.3371
1230.00,0.3437
1229.00,0.3473
1228.00,0.3483
1227.00,0.3468
1226.00,0.3432
1225.00,0.3379
1224.00,0.3314
1223.00,0.3240
1222.00,0.3163
1221.00,0.3094
1220.00,0.3040
1219.00,0.3011
1218.00,0.3012
1217.00,0.3044
1216.00,0.3097
1215.00,0.3157
1214.00,0.3212
1213.00,0.3249
1212.00,0.3264
1211.00,0.3255
1210.00,0.3225
1209.00,0.3177
1208.00,0.3118
1207.00,0.3052
1206.00,0.2982
1205.00,0.2912
1204.00,0.2844
1203.00,0.2779
1202.00,0.2717
1201.00,0.2660
1200.00,0.2608
1199.00,0.2562
1198.00,0.2522
1197.00,0.2490
1196.00,0.2465
1195.00,0.2444
1194.00,0.2428
1193.00,0.2411
1192.00,0.2393
1191.00,0.2370
1190.00,0.2343
1189.00,0.2314
1188.00,0.2282
1187.00,0.2248
1186.00,0.2214
1185.00,0.2180
1184.00,0.2147
1183.00,0.2116
1182.00,0.2085
1181.00,0.2057
1180.00,0.2030
1179.00,0.2003
1178.00,0.1976
1177.00,0.1951
1176.00,0.1926
1175.00,0.1903
1174.00,0.1882
1173.00,0.1862
1172.00,0.1843
1171.00,0.1825
1170.00,0.1807
1169.00,0.1791
1168.00,0.1774
1167.00,0.1757
1166.00,0.1740
1165.00,0.1725
1164.00,0.1709
1163.00,0.1693
1162.00,0.1678
1161.00,0.1663
1160.00,0.1648
1159.00,0.1632
1158.00,0.1617
1157.00,0.1602
1156.00,0.1587
1155.00,0.1572
1154.00,0.1557
1153.00,0.1543
1152.00,0.1528
1151.00,0.1514
1150.00,0.1499
1149.00,0.1485
1148.00,0.1472
1147.00,0.1458
1146.00,0.1446
1145.00,0.1434
1144.00,0.1422
1143.00,0.1410
1142.00,0.1399
1141.00,0.1388
1140.00,0.1377
1139.00,0.1367
1138.00,0.1357
1137.00,0.1348
1136.00,0.1340
1135.00,0.1332
1134.00,0.1325
1133.00,0.1319
1132.00,0.1314
1131.00,0.1309
1130.00,0.1305
1129.00,0.1301
1128.00,0.1296
1127.00,0.1290
1126.00,0.1284
1125.00,0.1277
1124.00,0.1269
1123.00,0.1263
1122.00,0.1256
1121.00,0.1250
1120.00,0.1244
1119.00,0.1237
1118.00,0.1231
1117.00,0.1225
1116.00,0.1218
1115.00,0.1212
1114.00,0.1206
1113.00,0.1200
1112.00,0.1194
1111.00,0.1187
1110.00,0.1182
1109.00,0.1177
1108.00,0.1172
1107.00,0.1166
1106.00,0.1161
1105.00,0.1156
1104.00,0.1152
1103.00,0.1148
1102.00,0.1145
1101.00,0.1141
1100.00,0.1137
1099.00,0.1132
1098.00,0.1128
1097.00,0.1123
1096.00,0.1119
1095.00,0.1115
1094.00,0.1112
1093.00,0.1108
1092.00,0.1103
1091.00,0.1099
1090.00,0.1094
1089.00,0.1089
1088.00,0.1084
1087.00,0.1079
1086.00,0.1075
1085.00,0.1070
1084.00,0.1065
1083.00,0.1060
1082.00,0.1055
1081.00,0.1051
1080.00,0.1046
1079.00,0.1042
1078.00,0.1040
1077.00,0.1038
1076.00,0.1037
1075.00,0.1037
1074.00,0.1036
1073.00,0.1035
1072.00,0.1031
1071.00,0.1027
1070.00,0.1022
1069.00,0.1017
1068.00,0.1013
1067.00,0.1009
1066.00,0.1006
1065.00,0.1003
1064.00,0.1001
1063.00,0.0998
1062.00,0.0996
1061.00,0.0994
1060.00,0.0992
1059.00,0.0990
1058.00,0.0988
1057.00,0.0986
1056.00,0.0983
1055.00,0.0981
1054.00,0.0978
1053.00,0.0975
1052.00,0.0973
1051.00,0.0970
1050.00,0.0969
1049.00,0.0967
1048.00,0.0966
1047.00,0.0964
1046.00,0.0962
1045.00,0.0959
1044.00,0.0957
1043.00,0.0954
1042.00,0.0952
1041.00,0.0950
1040.00,0.0948
1039.00,0.0946
1038.00,0.0944
1037.00,0.0942
1036.00,0.0940
1035.00,0.0937
1034.00,0.0936
1033.00,0.0935
1032.00,0.0934
1031.00,0.0935
1030.00,0.0939
1029.00,0.0946
1028.00,0.0953
1027.00,0.0959
1026.00,0.0966
1025.00,0.0973
1024.00,0.0983
1023.00,0.0998
1022.00,0.1020
1021.00,0.1050
1020.00,0.1094
1019.00,0.1159
1018.00,0.1254
1017.00,0.1382
1016.00,0.1542
1015.00,0.1723
1014.00,0.1911
1013.00,0.2089
1012.00,0.2244
1011.00,0.2368
1010.00,0.2457
1009.00,0.2504
1008.00,0.2508
1007.00,0.2473
1006.00,0.2417
1005.00,0.2361
1004.00,0.2327
1003.00,0.2327
1002.00,0.2355
1001.00,0.2392
1000.00,0.2412
999.00,0.2396
998.00,0.2341
997.00,0.2251
996.00,0.2139
995.00,0.2016
994.00,0.1893
993.00,0.1778
992.00,0.1676
991.00,0.1589
990.00,0.1516
989.00,0.1456
988.00,0.1406
987.00,0.1365
986.00,0.1331
985.00,0.1305
984.00,0.1283
983.00,0.1265
982.00,0.1251
981.00,0.1240
980.00,0.1232
979.00,0.1226
978.00,0.1222
977.00,0.1221
976.00,0.1222
975.00,0.1227
974.00,0.1237
973.00,0.1252
972.00,0.1270
971.00,0.1287
970.00,0.1303
969.00,0.1316
968.00,0.1325
967.00,0.1334
966.00,0.1344
965.00,0.1355
964.00,0.1369
963.00,0.1385
962.00,0.1404
961.00,0.1424
960.00,0.1446
959.00,0.1468
958.00,0.1491
957.00,0.1515
956.00,0.1538
955.00,0.1560
954.00,0.1580
953.00,0.1595
952.00,0.1604
951.00,0.1609
950.00,0.1612
949.00,0.1615
948.00,0.1620
947.00,0.1627
946.00,0.1637
945.00,0.1650
944.00,0.1667
943.00,0.1689
942.00,0.1717
941.00,0.1754
940.00,0.1800
939.00,0.1856
938.00,0.1923
937.00,0.1999
936.00,0.2080
935.00,0.2164
934.00,0.2247
933.00,0.2325
932.00,0.2394
931.00,0.2452
930.00,0.2499
929.00,0.2536
928.00,0.2566
927.00,0.2592
926.00,0.2617
925.00,0.2642
924.00,0.2667
923.00,0.2694
922.00,0.2723
921.00,0.2753
920.00,0.2784
919.00,0.2814
918.00,0.2843
917.00,0.2866
916.00,0.2880
915.00,0.2882
914.00,0.2877
913.00,0.2873
912.00,0.2879
911.00,0.2901
910.00,0.2941
909.00,0.2994
908.00,0.3055
907.00,0.3119
906.00,0.3184
905.00,0.3248
904.00,0.3308
903.00,0.3365
902.00,0.3418
901.00,0.3466
900.00,0.3509
899.00,0.3547
898.00,0.3580
897.00,0.3610
896.00,0.3634
895.00,0.3653
894.00,0.3668
893.00,0.3677
892.00,0.3681
891.00,0.3680
890.00,0.3674
889.00,0.3665
888.00,0.3653
887.00,0.3637
886.00,0.3618
885.00,0.3597
884.00,0.3573
883.00,0.3547
882.00,0.3520
881.00,0.3493
880.00,0.3464
879.00,0.3435
878.00,0.3405
877.00,0.3376
876.00,0.3346
875.00,0.3317
874.00,0.3288
873.00,0.3260
872.00,0.3232
871.00,0.3205
870.00,0.3179
869.00,0.3155
868.00,0.3132
867.00,0.3111
866.00,0.3094
865.00,0.3078
864.00,0.3063
863.00,0.3049
862.00,0.3035
861.00,0.3020
860.00,0.3004
859.00,0.2988
858.00,0.2972
857.00,0.2956
856.00,0.2940
855.00,0.2922
854.00,0.2903
853.00,0.2883
852.00,0.2860
851.00,0.2836
850.00,0.2811
849.00,0.2784
848.00,0.2757
847.00,0.2728
846.00,0.2699
845.00,0.2670
844.00,0.2640
843.00,0.2609
842.00,0.2579
841.00,0.2549
840.00,0.2519
839.00,0.2489
838.00,0.2460
837.00,0.2432
836.00,0.2405
835.00,0.2377
834.00,0.2351
833.00,0.2325
832.00,0.2300
831.00,0.2274
830.00,0.2248
829.00,0.2223
828.00,0.2197
827.00,0.2172
826.00,0.2148
825.00,0.2125
824.00,0.2102
823.00,0.2078
822.00,0.2056
821.00,0.2034
820.00,0.2013
819.00,0.1992
818.00,0.1973
817.00,0.1953
816.00,0.1934
815.00,0.1915
814.00,0.1900
813.00,0.1887
812.00,0.1873
811.00,0.1859
810.00,0.1843
809.00,0.1826
808.00,0.1809
807.00,0.1792
806.00,0.1776
805.00,0.1760
804.00,0.1744
803.00,0.1728
802.00,0.1712
801.00,0.1697
800.00,0.1682
799.00,0.1667
798.00,0.1655
797.00,0.1643
796.00,0.1633
795.00,0.1623
794.00,0.1615
793.00,0.1608
792.00,0.1603
791.00,0.1600
790.00,0.1600
789.00,0.1605
788.00,0.1613
787.00,0.1629
786.00,0.1653
785.00,0.1688
784.00,0.1736
783.00,0.1794
782.00,0.1853
781.00,0.1893
780.00,0.1892
779.00,0.1838
778.00,0.1738
777.00,0.1615
776.00,0.1493
775.00,0.1391
774.00,0.1316
773.00,0.1263
772.00,0.1227
771.00,0.1203
770.00,0.1186
769.00,0.1171
768.00,0.1155
767.00,0.1140
766.00,0.1125
765.00,0.1112
764.00,0.1099
763.00,0.1089
762.00,0.1080
761.00,0.1072
760.00,0.1063
759.00,0.1054
758.00,0.1045
757.00,0.1036
756.00,0.1026
755.00,0.1017
754.00,0.1008
753.00,0.1000
752.00,0.0991
751.00,0.0982
750.00,0.0974
749.00,0.0965
748.00,0.0955
747.00,0.0946
746.00,0.0938
745.00,0.0929
744.00,0.0921
743.00,0.0913
742.00,0.0905
741.00,0.0897
740.00,0.0889
739.00,0.0882
738.00,0.0875
737.00,0.0869
736.00,0.0864
735.00,0.0860
734.00,0.0859
733.00,0.0859
732.00,0.0861
731.00,0.0865
730.00,0.0873
729.00,0.0884
728.00,0.0899
727.00,0.0917
726.00,0.0940
725.00,0.0965
724.00,0.0990
723.00,0.1010
722.00,0.1023
721.00,0.1026
720.00,0.1018
719.00,0.1005
718.00,0.0989
717.00,0.0972
716.00,0.0955
715.00,0.0941
714.00,0.0928
713.00,0.0916
712.00,0.0904
711.00,0.0892
710.00,0.0881
709.00,0.0870
708.00,0.0857
707.00,0.0842
706.00,0.0825
705.00,0.0806
704.00,0.0785
703.00,0.0764
702.00,0.0744
701.00,0.0725
700.00,0.0708
699.00,0.0692
698.00,0.0678
697.00,0.0665
696.00,0.0652
695.00,0.0639
694.00,0.0626
693.00,0.0612
692.00,0.0598
691.00,0.0584
690.00,0.0573
689.00,0.0564
688.00,0.0557
687.00,0.0553
686.00,0.0552
685.00,0.0551
684.00,0.0546
683.00,0.0537
682.00,0.0525
681.00,0.0511
680.00,0.0496
679.00,0.0483
678.00,0.0471
677.00,0.0460
676.00,0.0450
675.00,0.0441
674.00,0.0434
673.00,0.0430
672.00,0.0429
671.00,0.0432
670.00,0.0438
669.00,0.0447
668.00,0.0458
667.00,0.0465
666.00,0.0463
665.00,0.0457
664.00,0.0453
663.00,0.0454
662.00,0.0463
661.00,0.0479
660.00,0.0502
659.00,0.0537
658.00,0.0587
657.00,0.0659
656.00,0.0764
655.00,0.0917
654.00,0.1132
653.00,0.1416
652.00,0.1770
651.00,0.2186
650.00,0.2645
649.00,0.3126
648.00,0.3601
647.00,0.4024
646.00,0.4345
645.00,0.4538
644.00,0.4600
643.00,0.4544
642.00,0.4396
641.00,0.4195
640.00,0.3972
639.00,0.3739
638.00,0.3505
637.00,0.3280
636.00,0.3068
635.00,0.2870
634.00,0.2685
633.00,0.2514
632.00,0.2356
631.00,0.2209
630.00,0.2072
629.00,0.1947
628.00,0.1836
627.00,0.1737
626.00,0.1648
625.00,0.1567
624.00,0.1493
623.00,0.1426
622.00,0.1365
621.00,0.1309
620.00,0.1258
619.00,0.1212
618.00,0.1169
617.00,0.1130
616.00,0.1093
615.00,0.1060
614.00,0.1029
613.00,0.0999
612.00,0.0970
611.00,0.0944
610.00,0.0921
609.00,0.0900
608.00,0.0880
607.00,0.0862
606.00,0.0848
605.00,0.0835
604.00,0.0825
603.00,0.0817
602.00,0.0812
601.00,0.0812
600.00,0.0815
599.00,0.0822
598.00,0.0834
597.00,0.0853
596.00,0.0880
595.00,0.0916
594.00,0.0966
593.00,0.1032
592.00,0.1118
591.00,0.1226
590.00,0.1362
589.00,0.1528
588.00,0.1730
587.00,0.1970
586.00,0.2244
585.00,0.2546
584.00,0.2860
583.00,0.3169
582.00,0.3453
581.00,0.3696
580.00,0.3882
579.00,0.4003
578.00,0.4057
577.00,0.4054
576.00,0.4009
575.00,0.3931
574.00,0.3830
573.00,0.3717
572.00,0.3600
571.00,0.3480
570.00,0.3362
569.00,0.3248
568.00,0.3138
567.00,0.3031
566.00,0.2927
565.00,0.2830
564.00,0.2739
563.00,0.2655
562.00,0.2576
561.00,0.2501
560.00,0.2431
559.00,0.2364
558.00,0.2299
557.00,0.2236
556.00,0.2173
555.00,0.2110
554.00,0.2051
553.00,0.1996
552.00,0.1946
551.00,0.1899
550.00,0.1855
549.00,0.1813
548.00,0.1774
547.00,0.1737
546.00,0.1703
545.00,0.1668
544.00,0.1634
543.00,0.1602
542.00,0.1574
541.00,0.1548
540.00,0.1522
539.00,0.1496
538.00,0.1470
537.00,0.1443
536.00,0.1416
535.00,0.1391
534.00,0.1368
533.00,0.1345
532.00,0.1323
531.00,0.1302
530.00,0.1284
529.00,0.1266
528.00,0.1247
527.00,0.1227
526.00,0.1208
525.00,0.1188
524.00,0.1168
523.00,0.1150
522.00,0.1135
521.00,0.1121
520.00,0.1109
519.00,0.1096
518.00,0.1084
517.00,0.1070
516.00,0.1053
515.00,0.1037
514.00,0.1023
513.00,0.1012
512.00,0.1001
511.00,0.0990
510.00,0.0981
509.00,0.0972
508.00,0.0964
507.00,0.0956
506.00,0.0948
505.00,0.0936
504.00,0.0920
503.00,0.0907
502.00,0.0900
501.00,0.0895
500.00,0.0890
499.00,0.0883
498.00,0.0876
497.00,0.0868
496.00,0.0859
495.00,0.0851
494.00,0.0843
493.00,0.0835
492.00,0.0827
491.00,0.0822
490.00,0.0823
489.00,0.0821
488.00,0.0815
487.00,0.0806
486.00,0.0800
485.00,0.0796
484.00,0.0793
483.00,0.0793
482.00,0.0795
481.00,0.0798
480.00,0.0799
479.00,0.0803
478.00,0.0811
477.00,0.0820
476.00,0.0829
475.00,0.0838
474.00,0.0851
473.00,0.0866
472.00,0.0882
471.00,0.0901
470.00,0.0925
469.00,0.0951
468.00,0.0977
467.00,0.1005
466.00,0.1035
465.00,0.1064
464.00,0.1091
463.00,0.1122
462.00,0.1159
461.00,0.1197
460.00,0.1231
459.00,0.1267
458.00,0.1310
457.00,0.1355
456.00,0.1397
455.00,0.1437
454.00,0.1479
453.00,0.1522
452.00,0.1563
451.00,0.1605
450.00,0.1648
449.00,0.1690
448.00,0.1724
447.00,0.1747
446.00,0.1762
445.00,0.1768
444.00,0.1761
443.00,0.1741
442.00,0.1711
441.00,0.1673
440.00,0.1631
439.00,0.1593
438.00,0.1560
437.00,0.1528
436.00,0.1491
435.00,0.1451
434.00,0.1413
433.00,0.1374
432.00,0.1333
431.00,0.1293
430.00,0.1259
429.00,0.1225
428.00,0.1189
427.00,0.1157
426.00,0.1136
425.00,0.1119
424.00,0.1099
423.00,0.1076
422.00,0.1053
421.00,0.1027
420.00,0.0994
419.00,0.0966
418.00,0.0957
417.00,0.0958
416.00,0.0955
415.00,0.0947
414.00,0.0938
413.00,0.0929
412.00,0.0916
411.00,0.0902
410.00,0.0890
409.00,0.0873
408.00,0.0855
407.00,0.0849
406.00,0.0863
405.00,0.0879
404.00,0.0877
403.00,0.0861
402.00,0.0842
401.00,0.0817
400.00,0.0783
