Created as New Dataset,Sample 857 By YargerLab Date Saturday, April 18 2026
cm-1,A
4000.00,0.0054
3999.00,0.0053
3998.00,0.0053
3997.00,0.0053
3996.00,0.0053
3995.00,0.0053
3994.00,0.0052
3993.00,0.0052
3992.00,0.0052
3991.00,0.0052
3990.00,0.0052
3989.00,0.0053
3988.00,0.0053
3987.00,0.0053
3986.00,0.0053
3985.00,0.0053
3984.00,0.0053
3983.00,0.0053
3982.00,0.0052
3981.00,0.0052
3980.00,0.0052
3979.00,0.0052
3978.00,0.0052
3977.00,0.0052
3976.00,0.0052
3975.00,0.0052
3974.00,0.0052
3973.00,0.0052
3972.00,0.0052
3971.00,0.0052
3970.00,0.0052
3969.00,0.0051
3968.00,0.0051
3967.00,0.0051
3966.00,0.0051
3965.00,0.0051
3964.00,0.0051
3963.00,0.0051
3962.00,0.0051
3961.00,0.0051
3960.00,0.0051
3959.00,0.0051
3958.00,0.0051
3957.00,0.0051
3956.00,0.0051
3955.00,0.0051
3954.00,0.0051
3953.00,0.0051
3952.00,0.0052
3951.00,0.0052
3950.00,0.0051
3949.00,0.0051
3948.00,0.0051
3947.00,0.0051
3946.00,0.0051
3945.00,0.0051
3944.00,0.0051
3943.00,0.0051
3942.00,0.0051
3941.00,0.0051
3940.00,0.0051
3939.00,0.0051
3938.00,0.0051
3937.00,0.0051
3936.00,0.0051
3935.00,0.0051
3934.00,0.0051
3933.00,0.0051
3932.00,0.0050
3931.00,0.0050
3930.00,0.0050
3929.00,0.0050
3928.00,0.0050
3927.00,0.0050
3926.00,0.0051
3925.00,0.0051
3924.00,0.0051
3923.00,0.0050
3922.00,0.0050
3921.00,0.0050
3920.00,0.0050
3919.00,0.0050
3918.00,0.0050
3917.00,0.0050
3916.00,0.0049
3915.00,0.0049
3914.00,0.0050
3913.00,0.0050
3912.00,0.0050
3911.00,0.0050
3910.00,0.0050
3909.00,0.0050
3908.00,0.0050
3907.00,0.0050
3906.00,0.0049
3905.00,0.0049
3904.00,0.0049
3903.00,0.0049
3902.00,0.0049
3901.00,0.0049
3900.00,0.0049
3899.00,0.0049
3898.00,0.0049
3897.00,0.0049
3896.00,0.0049
3895.00,0.0049
3894.00,0.0049
3893.00,0.0049
3892.00,0.0049
3891.00,0.0049
3890.00,0.0049
3889.00,0.0049
3888.00,0.0049
3887.00,0.0048
3886.00,0.0048
3885.00,0.0048
3884.00,0.0048
3883.00,0.0048
3882.00,0.0048
3881.00,0.0048
3880.00,0.0048
3879.00,0.0048
3878.00,0.0048
3877.00,0.0048
3876.00,0.0049
3875.00,0.0049
3874.00,0.0049
3873.00,0.0049
3872.00,0.0049
3871.00,0.0049
3870.00,0.0049
3869.00,0.0049
3868.00,0.0049
3867.00,0.0048
3866.00,0.0048
3865.00,0.0048
3864.00,0.0047
3863.00,0.0048
3862.00,0.0048
3861.00,0.0048
3860.00,0.0048
3859.00,0.0048
3858.00,0.0048
3857.00,0.0048
3856.00,0.0047
3855.00,0.0047
3854.00,0.0047
3853.00,0.0047
3852.00,0.0047
3851.00,0.0048
3850.00,0.0048
3849.00,0.0048
3848.00,0.0047
3847.00,0.0047
3846.00,0.0047
3845.00,0.0047
3844.00,0.0047
3843.00,0.0047
3842.00,0.0047
3841.00,0.0047
3840.00,0.0047
3839.00,0.0047
3838.00,0.0047
3837.00,0.0047
3836.00,0.0047
3835.00,0.0047
3834.00,0.0047
3833.00,0.0047
3832.00,0.0047
3831.00,0.0047
3830.00,0.0047
3829.00,0.0047
3828.00,0.0047
3827.00,0.0047
3826.00,0.0047
3825.00,0.0047
3824.00,0.0047
3823.00,0.0047
3822.00,0.0047
3821.00,0.0047
3820.00,0.0047
3819.00,0.0047
3818.00,0.0047
3817.00,0.0047
3816.00,0.0047
3815.00,0.0047
3814.00,0.0047
3813.00,0.0047
3812.00,0.0046
3811.00,0.0046
3810.00,0.0046
3809.00,0.0046
3808.00,0.0046
3807.00,0.0046
3806.00,0.0046
3805.00,0.0046
3804.00,0.0046
3803.00,0.0046
3802.00,0.0046
3801.00,0.0046
3800.00,0.0046
3799.00,0.0046
3798.00,0.0046
3797.00,0.0046
3796.00,0.0045
3795.00,0.0045
3794.00,0.0046
3793.00,0.0046
3792.00,0.0046
3791.00,0.0046
3790.00,0.0046
3789.00,0.0046
3788.00,0.0046
3787.00,0.0046
3786.00,0.0046
3785.00,0.0046
3784.00,0.0045
3783.00,0.0045
3782.00,0.0045
3781.00,0.0045
3780.00,0.0045
3779.00,0.0045
3778.00,0.0045
3777.00,0.0045
3776.00,0.0045
3775.00,0.0045
3774.00,0.0044
3773.00,0.0045
3772.00,0.0045
3771.00,0.0045
3770.00,0.0045
3769.00,0.0045
3768.00,0.0045
3767.00,0.0045
3766.00,0.0045
3765.00,0.0045
3764.00,0.0045
3763.00,0.0045
3762.00,0.0045
3761.00,0.0045
3760.00,0.0045
3759.00,0.0045
3758.00,0.0045
3757.00,0.0044
3756.00,0.0044
3755.00,0.0044
3754.00,0.0044
3753.00,0.0044
3752.00,0.0044
3751.00,0.0044
3750.00,0.0044
3749.00,0.0044
3748.00,0.0044
3747.00,0.0044
3746.00,0.0044
3745.00,0.0044
3744.00,0.0044
3743.00,0.0044
3742.00,0.0043
3741.00,0.0043
3740.00,0.0043
3739.00,0.0043
3738.00,0.0043
3737.00,0.0043
3736.00,0.0043
3735.00,0.0043
3734.00,0.0042
3733.00,0.0042
3732.00,0.0042
3731.00,0.0042
3730.00,0.0042
3729.00,0.0042
3728.00,0.0042
3727.00,0.0042
3726.00,0.0042
3725.00,0.0042
3724.00,0.0042
3723.00,0.0042
3722.00,0.0042
3721.00,0.0042
3720.00,0.0042
3719.00,0.0042
3718.00,0.0042
3717.00,0.0042
3716.00,0.0042
3715.00,0.0042
3714.00,0.0042
3713.00,0.0042
3712.00,0.0042
3711.00,0.0042
3710.00,0.0041
3709.00,0.0041
3708.00,0.0041
3707.00,0.0041
3706.00,0.0041
3705.00,0.0040
3704.00,0.0040
3703.00,0.0040
3702.00,0.0040
3701.00,0.0041
3700.00,0.0041
3699.00,0.0041
3698.00,0.0041
3697.00,0.0040
3696.00,0.0040
3695.00,0.0040
3694.00,0.0040
3693.00,0.0040
3692.00,0.0040
3691.00,0.0039
3690.00,0.0039
3689.00,0.0039
3688.00,0.0039
3687.00,0.0039
3686.00,0.0039
3685.00,0.0039
3684.00,0.0039
3683.00,0.0039
3682.00,0.0040
3681.00,0.0040
3680.00,0.0040
3679.00,0.0040
3678.00,0.0039
3677.00,0.0039
3676.00,0.0039
3675.00,0.0039
3674.00,0.0039
3673.00,0.0039
3672.00,0.0039
3671.00,0.0039
3670.00,0.0039
3669.00,0.0039
3668.00,0.0039
3667.00,0.0039
3666.00,0.0039
3665.00,0.0038
3664.00,0.0038
3663.00,0.0039
3662.00,0.0039
3661.00,0.0038
3660.00,0.0038
3659.00,0.0038
3658.00,0.0038
3657.00,0.0038
3656.00,0.0038
3655.00,0.0038
3654.00,0.0038
3653.00,0.0038
3652.00,0.0038
3651.00,0.0038
3650.00,0.0038
3649.00,0.0038
3648.00,0.0038
3647.00,0.0038
3646.00,0.0038
3645.00,0.0038
3644.00,0.0038
3643.00,0.0038
3642.00,0.0038
3641.00,0.0038
3640.00,0.0037
3639.00,0.0037
3638.00,0.0037
3637.00,0.0037
3636.00,0.0037
3635.00,0.0037
3634.00,0.0037
3633.00,0.0037
3632.00,0.0037
3631.00,0.0037
3630.00,0.0037
3629.00,0.0037
3628.00,0.0037
3627.00,0.0037
3626.00,0.0037
3625.00,0.0037
3624.00,0.0037
3623.00,0.0037
3622.00,0.0037
3621.00,0.0037
3620.00,0.0037
3619.00,0.0037
3618.00,0.0038
3617.00,0.0038
3616.00,0.0038
3615.00,0.0038
3614.00,0.0038
3613.00,0.0038
3612.00,0.0038
3611.00,0.0038
3610.00,0.0038
3609.00,0.0038
3608.00,0.0038
3607.00,0.0038
3606.00,0.0038
3605.00,0.0038
3604.00,0.0037
3603.00,0.0037
3602.00,0.0037
3601.00,0.0037
3600.00,0.0037
3599.00,0.0038
3598.00,0.0038
3597.00,0.0038
3596.00,0.0038
3595.00,0.0038
3594.00,0.0038
3593.00,0.0038
3592.00,0.0038
3591.00,0.0038
3590.00,0.0038
3589.00,0.0038
3588.00,0.0038
3587.00,0.0038
3586.00,0.0039
3585.00,0.0039
3584.00,0.0040
3583.00,0.0040
3582.00,0.0040
3581.00,0.0041
3580.00,0.0041
3579.00,0.0041
3578.00,0.0041
3577.00,0.0042
3576.00,0.0042
3575.00,0.0042
3574.00,0.0042
3573.00,0.0042
3572.00,0.0042
3571.00,0.0043
3570.00,0.0043
3569.00,0.0043
3568.00,0.0043
3567.00,0.0044
3566.00,0.0044
3565.00,0.0044
3564.00,0.0045
3563.00,0.0045
3562.00,0.0046
3561.00,0.0046
3560.00,0.0046
3559.00,0.0047
3558.00,0.0047
3557.00,0.0047
3556.00,0.0047
3555.00,0.0048
3554.00,0.0048
3553.00,0.0048
3552.00,0.0049
3551.00,0.0049
3550.00,0.0050
3549.00,0.0050
3548.00,0.0050
3547.00,0.0051
3546.00,0.0051
3545.00,0.0052
3544.00,0.0052
3543.00,0.0052
3542.00,0.0053
3541.00,0.0054
3540.00,0.0054
3539.00,0.0055
3538.00,0.0056
3537.00,0.0057
3536.00,0.0057
3535.00,0.0058
3534.00,0.0059
3533.00,0.0059
3532.00,0.0060
3531.00,0.0061
3530.00,0.0061
3529.00,0.0062
3528.00,0.0063
3527.00,0.0064
3526.00,0.0065
3525.00,0.0065
3524.00,0.0066
3523.00,0.0066
3522.00,0.0067
3521.00,0.0068
3520.00,0.0069
3519.00,0.0069
3518.00,0.0070
3517.00,0.0071
3516.00,0.0071
3515.00,0.0072
3514.00,0.0073
3513.00,0.0073
3512.00,0.0074
3511.00,0.0075
3510.00,0.0076
3509.00,0.0076
3508.00,0.0077
3507.00,0.0078
3506.00,0.0078
3505.00,0.0078
3504.00,0.0079
3503.00,0.0080
3502.00,0.0081
3501.00,0.0082
3500.00,0.0082
3499.00,0.0083
3498.00,0.0084
3497.00,0.0085
3496.00,0.0086
3495.00,0.0087
3494.00,0.0088
3493.00,0.0089
3492.00,0.0090
3491.00,0.0091
3490.00,0.0092
3489.00,0.0093
3488.00,0.0094
3487.00,0.0096
3486.00,0.0097
3485.00,0.0098
3484.00,0.0099
3483.00,0.0101
3482.00,0.0102
3481.00,0.0104
3480.00,0.0105
3479.00,0.0107
3478.00,0.0108
3477.00,0.0110
3476.00,0.0112
3475.00,0.0114
3474.00,0.0116
3473.00,0.0118
3472.00,0.0120
3471.00,0.0122
3470.00,0.0124
3469.00,0.0126
3468.00,0.0127
3467.00,0.0129
3466.00,0.0132
3465.00,0.0134
3464.00,0.0136
3463.00,0.0139
3462.00,0.0141
3461.00,0.0144
3460.00,0.0146
3459.00,0.0148
3458.00,0.0151
3457.00,0.0153
3456.00,0.0156
3455.00,0.0159
3454.00,0.0161
3453.00,0.0164
3452.00,0.0167
3451.00,0.0170
3450.00,0.0173
3449.00,0.0175
3448.00,0.0178
3447.00,0.0181
3446.00,0.0184
3445.00,0.0186
3444.00,0.0189
3443.00,0.0192
3442.00,0.0194
3441.00,0.0197
3440.00,0.0200
3439.00,0.0203
3438.00,0.0206
3437.00,0.0209
3436.00,0.0212
3435.00,0.0215
3434.00,0.0218
3433.00,0.0221
3432.00,0.0225
3431.00,0.0229
3430.00,0.0233
3429.00,0.0237
3428.00,0.0242
3427.00,0.0248
3426.00,0.0254
3425.00,0.0261
3424.00,0.0269
3423.00,0.0277
3422.00,0.0287
3421.00,0.0297
3420.00,0.0309
3419.00,0.0322
3418.00,0.0335
3417.00,0.0349
3416.00,0.0364
3415.00,0.0379
3414.00,0.0395
3413.00,0.0410
3412.00,0.0423
3411.00,0.0436
3410.00,0.0446
3409.00,0.0455
3408.00,0.0462
3407.00,0.0466
3406.00,0.0469
3405.00,0.0471
3404.00,0.0471
3403.00,0.0472
3402.00,0.0472
3401.00,0.0472
3400.00,0.0472
3399.00,0.0472
3398.00,0.0473
3397.00,0.0473
3396.00,0.0474
3395.00,0.0475
3394.00,0.0476
3393.00,0.0476
3392.00,0.0475
3391.00,0.0474
3390.00,0.0471
3389.00,0.0468
3388.00,0.0465
3387.00,0.0461
3386.00,0.0457
3385.00,0.0453
3384.00,0.0450
3383.00,0.0447
3382.00,0.0444
3381.00,0.0442
3380.00,0.0440
3379.00,0.0438
3378.00,0.0436
3377.00,0.0436
3376.00,0.0436
3375.00,0.0436
3374.00,0.0437
3373.00,0.0439
3372.00,0.0441
3371.00,0.0443
3370.00,0.0446
3369.00,0.0448
3368.00,0.0451
3367.00,0.0454
3366.00,0.0457
3365.00,0.0461
3364.00,0.0464
3363.00,0.0468
3362.00,0.0473
3361.00,0.0477
3360.00,0.0481
3359.00,0.0485
3358.00,0.0490
3357.00,0.0494
3356.00,0.0497
3355.00,0.0501
3354.00,0.0504
3353.00,0.0508
3352.00,0.0510
3351.00,0.0513
3350.00,0.0515
3349.00,0.0517
3348.00,0.0519
3347.00,0.0521
3346.00,0.0523
3345.00,0.0526
3344.00,0.0528
3343.00,0.0530
3342.00,0.0532
3341.00,0.0534
3340.00,0.0536
3339.00,0.0538
3338.00,0.0541
3337.00,0.0544
3336.00,0.0546
3335.00,0.0549
3334.00,0.0553
3333.00,0.0556
3332.00,0.0560
3331.00,0.0564
3330.00,0.0569
3329.00,0.0573
3328.00,0.0578
3327.00,0.0583
3326.00,0.0588
3325.00,0.0593
3324.00,0.0598
3323.00,0.0603
3322.00,0.0608
3321.00,0.0614
3320.00,0.0619
3319.00,0.0625
3318.00,0.0630
3317.00,0.0635
3316.00,0.0640
3315.00,0.0644
3314.00,0.0649
3313.00,0.0653
3312.00,0.0658
3311.00,0.0662
3310.00,0.0665
3309.00,0.0669
3308.00,0.0672
3307.00,0.0674
3306.00,0.0675
3305.00,0.0677
3304.00,0.0677
3303.00,0.0678
3302.00,0.0678
3301.00,0.0678
3300.00,0.0679
3299.00,0.0679
3298.00,0.0680
3297.00,0.0680
3296.00,0.0680
3295.00,0.0680
3294.00,0.0679
3293.00,0.0679
3292.00,0.0679
3291.00,0.0678
3290.00,0.0678
3289.00,0.0678
3288.00,0.0678
3287.00,0.0678
3286.00,0.0679
3285.00,0.0679
3284.00,0.0680
3283.00,0.0681
3282.00,0.0681
3281.00,0.0682
3280.00,0.0683
3279.00,0.0684
3278.00,0.0686
3277.00,0.0687
3276.00,0.0689
3275.00,0.0690
3274.00,0.0692
3273.00,0.0693
3272.00,0.0695
3271.00,0.0696
3270.00,0.0697
3269.00,0.0698
3268.00,0.0699
3267.00,0.0699
3266.00,0.0700
3265.00,0.0701
3264.00,0.0702
3263.00,0.0703
3262.00,0.0704
3261.00,0.0705
3260.00,0.0706
3259.00,0.0707
3258.00,0.0708
3257.00,0.0709
3256.00,0.0709
3255.00,0.0710
3254.00,0.0710
3253.00,0.0710
3252.00,0.0710
3251.00,0.0711
3250.00,0.0711
3249.00,0.0711
3248.00,0.0712
3247.00,0.0712
3246.00,0.0711
3245.00,0.0711
3244.00,0.0711
3243.00,0.0711
3242.00,0.0710
3241.00,0.0709
3240.00,0.0709
3239.00,0.0708
3238.00,0.0708
3237.00,0.0707
3236.00,0.0706
3235.00,0.0706
3234.00,0.0705
3233.00,0.0704
3232.00,0.0703
3231.00,0.0702
3230.00,0.0701
3229.00,0.0700
3228.00,0.0699
3227.00,0.0698
3226.00,0.0697
3225.00,0.0696
3224.00,0.0696
3223.00,0.0695
3222.00,0.0694
3221.00,0.0694
3220.00,0.0694
3219.00,0.0693
3218.00,0.0693
3217.00,0.0692
3216.00,0.0691
3215.00,0.0691
3214.00,0.0691
3213.00,0.0690
3212.00,0.0690
3211.00,0.0689
3210.00,0.0689
3209.00,0.0688
3208.00,0.0688
3207.00,0.0687
3206.00,0.0686
3205.00,0.0686
3204.00,0.0685
3203.00,0.0684
3202.00,0.0683
3201.00,0.0682
3200.00,0.0681
3199.00,0.0679
3198.00,0.0678
3197.00,0.0677
3196.00,0.0676
3195.00,0.0674
3194.00,0.0672
3193.00,0.0671
3192.00,0.0669
3191.00,0.0667
3190.00,0.0665
3189.00,0.0662
3188.00,0.0660
3187.00,0.0658
3186.00,0.0655
3185.00,0.0653
3184.00,0.0650
3183.00,0.0647
3182.00,0.0644
3181.00,0.0641
3180.00,0.0638
3179.00,0.0636
3178.00,0.0633
3177.00,0.0630
3176.00,0.0627
3175.00,0.0623
3174.00,0.0620
3173.00,0.0617
3172.00,0.0614
3171.00,0.0610
3170.00,0.0607
3169.00,0.0603
3168.00,0.0600
3167.00,0.0596
3166.00,0.0593
3165.00,0.0590
3164.00,0.0586
3163.00,0.0583
3162.00,0.0580
3161.00,0.0576
3160.00,0.0573
3159.00,0.0569
3158.00,0.0565
3157.00,0.0562
3156.00,0.0558
3155.00,0.0555
3154.00,0.0552
3153.00,0.0549
3152.00,0.0545
3151.00,0.0542
3150.00,0.0538
3149.00,0.0535
3148.00,0.0531
3147.00,0.0528
3146.00,0.0525
3145.00,0.0522
3144.00,0.0518
3143.00,0.0515
3142.00,0.0512
3141.00,0.0509
3140.00,0.0505
3139.00,0.0502
3138.00,0.0499
3137.00,0.0495
3136.00,0.0492
3135.00,0.0488
3134.00,0.0485
3133.00,0.0482
3132.00,0.0479
3131.00,0.0476
3130.00,0.0473
3129.00,0.0470
3128.00,0.0467
3127.00,0.0463
3126.00,0.0460
3125.00,0.0457
3124.00,0.0453
3123.00,0.0450
3122.00,0.0447
3121.00,0.0445
3120.00,0.0442
3119.00,0.0439
3118.00,0.0436
3117.00,0.0433
3116.00,0.0429
3115.00,0.0426
3114.00,0.0423
3113.00,0.0420
3112.00,0.0417
3111.00,0.0413
3110.00,0.0410
3109.00,0.0407
3108.00,0.0404
3107.00,0.0401
3106.00,0.0398
3105.00,0.0395
3104.00,0.0392
3103.00,0.0390
3102.00,0.0387
3101.00,0.0384
3100.00,0.0381
3099.00,0.0378
3098.00,0.0375
3097.00,0.0372
3096.00,0.0369
3095.00,0.0367
3094.00,0.0364
3093.00,0.0361
3092.00,0.0359
3091.00,0.0356
3090.00,0.0354
3089.00,0.0351
3088.00,0.0348
3087.00,0.0346
3086.00,0.0343
3085.00,0.0341
3084.00,0.0338
3083.00,0.0335
3082.00,0.0333
3081.00,0.0330
3080.00,0.0328
3079.00,0.0325
3078.00,0.0323
3077.00,0.0320
3076.00,0.0318
3075.00,0.0315
3074.00,0.0313
3073.00,0.0310
3072.00,0.0308
3071.00,0.0306
3070.00,0.0304
3069.00,0.0302
3068.00,0.0300
3067.00,0.0297
3066.00,0.0295
3065.00,0.0293
3064.00,0.0290
3063.00,0.0288
3062.00,0.0286
3061.00,0.0284
3060.00,0.0282
3059.00,0.0280
3058.00,0.0277
3057.00,0.0275
3056.00,0.0273
3055.00,0.0271
3054.00,0.0269
3053.00,0.0267
3052.00,0.0265
3051.00,0.0263
3050.00,0.0261
3049.00,0.0260
3048.00,0.0258
3047.00,0.0256
3046.00,0.0254
3045.00,0.0252
3044.00,0.0250
3043.00,0.0249
3042.00,0.0247
3041.00,0.0245
3040.00,0.0243
3039.00,0.0242
3038.00,0.0240
3037.00,0.0238
3036.00,0.0236
3035.00,0.0234
3034.00,0.0233
3033.00,0.0231
3032.00,0.0230
3031.00,0.0228
3030.00,0.0227
3029.00,0.0225
3028.00,0.0223
3027.00,0.0222
3026.00,0.0221
3025.00,0.0220
3024.00,0.0218
3023.00,0.0217
3022.00,0.0215
3021.00,0.0214
3020.00,0.0212
3019.00,0.0211
3018.00,0.0210
3017.00,0.0208
3016.00,0.0207
3015.00,0.0206
3014.00,0.0204
3013.00,0.0203
3012.00,0.0201
3011.00,0.0200
3010.00,0.0198
3009.00,0.0197
3008.00,0.0196
3007.00,0.0194
3006.00,0.0193
3005.00,0.0191
3004.00,0.0190
3003.00,0.0189
3002.00,0.0187
3001.00,0.0186
3000.00,0.0184
2999.00,0.0183
2998.00,0.0181
2997.00,0.0180
2996.00,0.0179
2995.00,0.0178
2994.00,0.0177
2993.00,0.0176
2992.00,0.0175
2991.00,0.0173
2990.00,0.0172
2989.00,0.0171
2988.00,0.0170
2987.00,0.0168
2986.00,0.0167
2985.00,0.0165
2984.00,0.0163
2983.00,0.0162
2982.00,0.0160
2981.00,0.0159
2980.00,0.0159
2979.00,0.0158
2978.00,0.0159
2977.00,0.0159
2976.00,0.0160
2975.00,0.0161
2974.00,0.0162
2973.00,0.0162
2972.00,0.0161
2971.00,0.0159
2970.00,0.0158
2969.00,0.0157
2968.00,0.0156
2967.00,0.0156
2966.00,0.0156
2965.00,0.0157
2964.00,0.0157
2963.00,0.0158
2962.00,0.0158
2961.00,0.0159
2960.00,0.0160
2959.00,0.0162
2958.00,0.0164
2957.00,0.0167
2956.00,0.0172
2955.00,0.0178
2954.00,0.0187
2953.00,0.0198
2952.00,0.0213
2951.00,0.0232
2950.00,0.0254
2949.00,0.0278
2948.00,0.0304
2947.00,0.0328
2946.00,0.0348
2945.00,0.0361
2944.00,0.0365
2943.00,0.0361
2942.00,0.0349
2941.00,0.0333
2940.00,0.0314
2939.00,0.0296
2938.00,0.0279
2937.00,0.0263
2936.00,0.0249
2935.00,0.0236
2934.00,0.0225
2933.00,0.0215
2932.00,0.0206
2931.00,0.0199
2930.00,0.0194
2929.00,0.0189
2928.00,0.0186
2927.00,0.0184
2926.00,0.0183
2925.00,0.0184
2924.00,0.0185
2923.00,0.0189
2922.00,0.0194
2921.00,0.0201
2920.00,0.0211
2919.00,0.0224
2918.00,0.0240
2917.00,0.0258
2916.00,0.0276
2915.00,0.0291
2914.00,0.0300
2913.00,0.0302
2912.00,0.0297
2911.00,0.0286
2910.00,0.0273
2909.00,0.0260
2908.00,0.0249
2907.00,0.0241
2906.00,0.0235
2905.00,0.0230
2904.00,0.0227
2903.00,0.0225
2902.00,0.0224
2901.00,0.0223
2900.00,0.0224
2899.00,0.0227
2898.00,0.0231
2897.00,0.0238
2896.00,0.0248
2895.00,0.0259
2894.00,0.0271
2893.00,0.0281
2892.00,0.0287
2891.00,0.0288
2890.00,0.0284
2889.00,0.0278
2888.00,0.0270
2887.00,0.0262
2886.00,0.0256
2885.00,0.0252
2884.00,0.0250
2883.00,0.0249
2882.00,0.0250
2881.00,0.0252
2880.00,0.0253
2879.00,0.0255
2878.00,0.0255
2877.00,0.0255
2876.00,0.0254
2875.00,0.0251
2874.00,0.0248
2873.00,0.0245
2872.00,0.0242
2871.00,0.0239
2870.00,0.0236
2869.00,0.0233
2868.00,0.0230
2867.00,0.0228
2866.00,0.0225
2865.00,0.0223
2864.00,0.0221
2863.00,0.0219
2862.00,0.0218
2861.00,0.0216
2860.00,0.0215
2859.00,0.0213
2858.00,0.0213
2857.00,0.0212
2856.00,0.0212
2855.00,0.0211
2854.00,0.0212
2853.00,0.0212
2852.00,0.0212
2851.00,0.0213
2850.00,0.0214
2849.00,0.0214
2848.00,0.0215
2847.00,0.0216
2846.00,0.0216
2845.00,0.0217
2844.00,0.0217
2843.00,0.0216
2842.00,0.0216
2841.00,0.0215
2840.00,0.0213
2839.00,0.0212
2838.00,0.0211
2837.00,0.0210
2836.00,0.0208
2835.00,0.0207
2834.00,0.0205
2833.00,0.0204
2832.00,0.0203
2831.00,0.0201
2830.00,0.0200
2829.00,0.0199
2828.00,0.0198
2827.00,0.0197
2826.00,0.0195
2825.00,0.0194
2824.00,0.0193
2823.00,0.0192
2822.00,0.0191
2821.00,0.0191
2820.00,0.0190
2819.00,0.0190
2818.00,0.0189
2817.00,0.0189
2816.00,0.0189
2815.00,0.0188
2814.00,0.0188
2813.00,0.0188
2812.00,0.0188
2811.00,0.0188
2810.00,0.0188
2809.00,0.0189
2808.00,0.0189
2807.00,0.0189
2806.00,0.0190
2805.00,0.0190
2804.00,0.0190
2803.00,0.0191
2802.00,0.0191
2801.00,0.0191
2800.00,0.0191
2799.00,0.0191
2798.00,0.0191
2797.00,0.0191
2796.00,0.0191
2795.00,0.0191
2794.00,0.0191
2793.00,0.0191
2792.00,0.0191
2791.00,0.0191
2790.00,0.0190
2789.00,0.0189
2788.00,0.0189
2787.00,0.0189
2786.00,0.0188
2785.00,0.0188
2784.00,0.0187
2783.00,0.0187
2782.00,0.0186
2781.00,0.0186
2780.00,0.0185
2779.00,0.0185
2778.00,0.0184
2777.00,0.0183
2776.00,0.0183
2775.00,0.0182
2774.00,0.0182
2773.00,0.0181
2772.00,0.0181
2771.00,0.0180
2770.00,0.0180
2769.00,0.0179
2768.00,0.0179
2767.00,0.0178
2766.00,0.0178
2765.00,0.0177
2764.00,0.0177
2763.00,0.0176
2762.00,0.0176
2761.00,0.0175
2760.00,0.0174
2759.00,0.0174
2758.00,0.0173
2757.00,0.0173
2756.00,0.0172
2755.00,0.0171
2754.00,0.0170
2753.00,0.0169
2752.00,0.0168
2751.00,0.0167
2750.00,0.0166
2749.00,0.0165
2748.00,0.0165
2747.00,0.0164
2746.00,0.0163
2745.00,0.0163
2744.00,0.0162
2743.00,0.0162
2742.00,0.0161
2741.00,0.0160
2740.00,0.0160
2739.00,0.0159
2738.00,0.0159
2737.00,0.0159
2736.00,0.0158
2735.00,0.0158
2734.00,0.0158
2733.00,0.0158
2732.00,0.0158
2731.00,0.0158
2730.00,0.0158
2729.00,0.0158
2728.00,0.0158
2727.00,0.0158
2726.00,0.0158
2725.00,0.0158
2724.00,0.0158
2723.00,0.0158
2722.00,0.0158
2721.00,0.0158
2720.00,0.0158
2719.00,0.0158
2718.00,0.0158
2717.00,0.0158
2716.00,0.0157
2715.00,0.0157
2714.00,0.0157
2713.00,0.0157
2712.00,0.0158
2711.00,0.0158
2710.00,0.0158
2709.00,0.0159
2708.00,0.0159
2707.00,0.0159
2706.00,0.0159
2705.00,0.0160
2704.00,0.0160
2703.00,0.0160
2702.00,0.0160
2701.00,0.0160
2700.00,0.0160
2699.00,0.0161
2698.00,0.0161
2697.00,0.0161
2696.00,0.0160
2695.00,0.0160
2694.00,0.0160
2693.00,0.0160
2692.00,0.0160
2691.00,0.0160
2690.00,0.0160
2689.00,0.0159
2688.00,0.0159
2687.00,0.0159
2686.00,0.0159
2685.00,0.0158
2684.00,0.0158
2683.00,0.0157
2682.00,0.0157
2681.00,0.0157
2680.00,0.0156
2679.00,0.0156
2678.00,0.0156
2677.00,0.0155
2676.00,0.0155
2675.00,0.0155
2674.00,0.0154
2673.00,0.0154
2672.00,0.0154
2671.00,0.0154
2670.00,0.0154
2669.00,0.0154
2668.00,0.0154
2667.00,0.0154
2666.00,0.0154
2665.00,0.0154
2664.00,0.0154
2663.00,0.0154
2662.00,0.0154
2661.00,0.0153
2660.00,0.0153
2659.00,0.0152
2658.00,0.0152
2657.00,0.0151
2656.00,0.0151
2655.00,0.0150
2654.00,0.0150
2653.00,0.0149
2652.00,0.0148
2651.00,0.0148
2650.00,0.0147
2649.00,0.0147
2648.00,0.0146
2647.00,0.0146
2646.00,0.0145
2645.00,0.0145
2644.00,0.0144
2643.00,0.0143
2642.00,0.0143
2641.00,0.0142
2640.00,0.0142
2639.00,0.0141
2638.00,0.0140
2637.00,0.0139
2636.00,0.0139
2635.00,0.0138
2634.00,0.0138
2633.00,0.0137
2632.00,0.0137
2631.00,0.0137
2630.00,0.0136
2629.00,0.0136
2628.00,0.0135
2627.00,0.0135
2626.00,0.0134
2625.00,0.0134
2624.00,0.0133
2623.00,0.0132
2622.00,0.0132
2621.00,0.0131
2620.00,0.0131
2619.00,0.0130
2618.00,0.0130
2617.00,0.0129
2616.00,0.0129
2615.00,0.0129
2614.00,0.0129
2613.00,0.0129
2612.00,0.0129
2611.00,0.0129
2610.00,0.0128
2609.00,0.0128
2608.00,0.0128
2607.00,0.0128
2606.00,0.0127
2605.00,0.0127
2604.00,0.0127
2603.00,0.0127
2602.00,0.0127
2601.00,0.0126
2600.00,0.0126
2599.00,0.0125
2598.00,0.0125
2597.00,0.0124
2596.00,0.0124
2595.00,0.0123
2594.00,0.0123
2593.00,0.0123
2592.00,0.0122
2591.00,0.0122
2590.00,0.0121
2589.00,0.0120
2588.00,0.0120
2587.00,0.0119
2586.00,0.0119
2585.00,0.0118
2584.00,0.0118
2583.00,0.0118
2582.00,0.0118
2581.00,0.0117
2580.00,0.0117
2579.00,0.0116
2578.00,0.0116
2577.00,0.0116
2576.00,0.0116
2575.00,0.0116
2574.00,0.0116
2573.00,0.0116
2572.00,0.0116
2571.00,0.0116
2570.00,0.0116
2569.00,0.0116
2568.00,0.0116
2567.00,0.0115
2566.00,0.0115
2565.00,0.0115
2564.00,0.0115
2563.00,0.0114
2562.00,0.0114
2561.00,0.0114
2560.00,0.0114
2559.00,0.0114
2558.00,0.0114
2557.00,0.0114
2556.00,0.0115
2555.00,0.0115
2554.00,0.0114
2553.00,0.0114
2552.00,0.0114
2551.00,0.0115
2550.00,0.0115
2549.00,0.0115
2548.00,0.0115
2547.00,0.0115
2546.00,0.0116
2545.00,0.0116
2544.00,0.0116
2543.00,0.0116
2542.00,0.0116
2541.00,0.0116
2540.00,0.0116
2539.00,0.0116
2538.00,0.0116
2537.00,0.0115
2536.00,0.0115
2535.00,0.0115
2534.00,0.0115
2533.00,0.0115
2532.00,0.0115
2531.00,0.0114
2530.00,0.0114
2529.00,0.0113
2528.00,0.0113
2527.00,0.0112
2526.00,0.0112
2525.00,0.0112
2524.00,0.0112
2523.00,0.0111
2522.00,0.0111
2521.00,0.0111
2520.00,0.0111
2519.00,0.0111
2518.00,0.0111
2517.00,0.0111
2516.00,0.0111
2515.00,0.0111
2514.00,0.0111
2513.00,0.0111
2512.00,0.0111
2511.00,0.0111
2510.00,0.0111
2509.00,0.0111
2508.00,0.0111
2507.00,0.0111
2506.00,0.0111
2505.00,0.0111
2504.00,0.0111
2503.00,0.0111
2502.00,0.0110
2501.00,0.0110
2500.00,0.0110
2499.00,0.0109
2498.00,0.0109
2497.00,0.0109
2496.00,0.0109
2495.00,0.0109
2494.00,0.0109
2493.00,0.0108
2492.00,0.0108
2491.00,0.0108
2490.00,0.0108
2489.00,0.0107
2488.00,0.0107
2487.00,0.0107
2486.00,0.0107
2485.00,0.0106
2484.00,0.0106
2483.00,0.0106
2482.00,0.0106
2481.00,0.0105
2480.00,0.0105
2479.00,0.0105
2478.00,0.0105
2477.00,0.0105
2476.00,0.0104
2475.00,0.0104
2474.00,0.0104
2473.00,0.0103
2472.00,0.0103
2471.00,0.0103
2470.00,0.0102
2469.00,0.0102
2468.00,0.0101
2467.00,0.0101
2466.00,0.0101
2465.00,0.0101
2464.00,0.0101
2463.00,0.0101
2462.00,0.0101
2461.00,0.0101
2460.00,0.0101
2459.00,0.0100
2458.00,0.0100
2457.00,0.0100
2456.00,0.0099
2455.00,0.0099
2454.00,0.0099
2453.00,0.0098
2452.00,0.0098
2451.00,0.0098
2450.00,0.0098
2449.00,0.0098
2448.00,0.0098
2447.00,0.0097
2446.00,0.0096
2445.00,0.0096
2444.00,0.0095
2443.00,0.0095
2442.00,0.0095
2441.00,0.0095
2440.00,0.0094
2439.00,0.0094
2438.00,0.0094
2437.00,0.0094
2436.00,0.0094
2435.00,0.0093
2434.00,0.0093
2433.00,0.0093
2432.00,0.0093
2431.00,0.0092
2430.00,0.0092
2429.00,0.0092
2428.00,0.0092
2427.00,0.0091
2426.00,0.0092
2425.00,0.0092
2424.00,0.0091
2423.00,0.0091
2422.00,0.0091
2421.00,0.0090
2420.00,0.0090
2419.00,0.0090
2418.00,0.0089
2417.00,0.0089
2416.00,0.0088
2415.00,0.0088
2414.00,0.0088
2413.00,0.0089
2412.00,0.0089
2411.00,0.0089
2410.00,0.0088
2409.00,0.0088
2408.00,0.0087
2407.00,0.0086
2406.00,0.0086
2405.00,0.0085
2404.00,0.0086
2403.00,0.0086
2402.00,0.0086
2401.00,0.0086
2400.00,0.0086
2399.00,0.0086
2398.00,0.0085
2397.00,0.0085
2396.00,0.0084
2395.00,0.0084
2394.00,0.0084
2393.00,0.0084
2392.00,0.0084
2391.00,0.0084
2390.00,0.0083
2389.00,0.0083
2388.00,0.0083
2387.00,0.0083
2386.00,0.0083
2385.00,0.0082
2384.00,0.0081
2383.00,0.0080
2382.00,0.0079
2381.00,0.0078
2380.00,0.0078
2379.00,0.0077
2378.00,0.0077
2377.00,0.0078
2376.00,0.0078
2375.00,0.0078
2374.00,0.0078
2373.00,0.0078
2372.00,0.0078
2371.00,0.0077
2370.00,0.0077
2369.00,0.0076
2368.00,0.0075
2367.00,0.0075
2366.00,0.0075
2365.00,0.0076
2364.00,0.0076
2363.00,0.0076
2362.00,0.0076
2361.00,0.0076
2360.00,0.0076
2359.00,0.0076
2358.00,0.0077
2357.00,0.0077
2356.00,0.0078
2355.00,0.0078
2354.00,0.0079
2353.00,0.0079
2352.00,0.0078
2351.00,0.0078
2350.00,0.0077
2349.00,0.0077
2348.00,0.0077
2347.00,0.0077
2346.00,0.0077
2345.00,0.0077
2344.00,0.0076
2343.00,0.0076
2342.00,0.0077
2341.00,0.0077
2340.00,0.0078
2339.00,0.0079
2338.00,0.0079
2337.00,0.0079
2336.00,0.0079
2335.00,0.0079
2334.00,0.0079
2333.00,0.0078
2332.00,0.0078
2331.00,0.0078
2330.00,0.0078
2329.00,0.0080
2328.00,0.0083
2327.00,0.0087
2326.00,0.0090
2325.00,0.0091
2324.00,0.0090
2323.00,0.0087
2322.00,0.0085
2321.00,0.0084
2320.00,0.0083
2319.00,0.0082
2318.00,0.0082
2317.00,0.0081
2316.00,0.0081
2315.00,0.0080
2314.00,0.0079
2313.00,0.0079
2312.00,0.0078
2311.00,0.0077
2310.00,0.0077
2309.00,0.0077
2308.00,0.0077
2307.00,0.0077
2306.00,0.0077
2305.00,0.0078
2304.00,0.0078
2303.00,0.0078
2302.00,0.0078
2301.00,0.0077
2300.00,0.0077
2299.00,0.0077
2298.00,0.0078
2297.00,0.0079
2296.00,0.0079
2295.00,0.0080
2294.00,0.0081
2293.00,0.0082
2292.00,0.0082
2291.00,0.0083
2290.00,0.0084
2289.00,0.0085
2288.00,0.0085
2287.00,0.0086
2286.00,0.0086
2285.00,0.0085
2284.00,0.0084
2283.00,0.0083
2282.00,0.0083
2281.00,0.0082
2280.00,0.0083
2279.00,0.0083
2278.00,0.0083
2277.00,0.0083
2276.00,0.0083
2275.00,0.0082
2274.00,0.0082
2273.00,0.0081
2272.00,0.0081
2271.00,0.0080
2270.00,0.0080
2269.00,0.0080
2268.00,0.0080
2267.00,0.0080
2266.00,0.0080
2265.00,0.0079
2264.00,0.0079
2263.00,0.0079
2262.00,0.0079
2261.00,0.0079
2260.00,0.0079
2259.00,0.0079
2258.00,0.0078
2257.00,0.0076
2256.00,0.0076
2255.00,0.0076
2254.00,0.0076
2253.00,0.0076
2252.00,0.0076
2251.00,0.0076
2250.00,0.0076
2249.00,0.0076
2248.00,0.0076
2247.00,0.0077
2246.00,0.0077
2245.00,0.0077
2244.00,0.0077
2243.00,0.0077
2242.00,0.0077
2241.00,0.0076
2240.00,0.0076
2239.00,0.0075
2238.00,0.0075
2237.00,0.0075
2236.00,0.0075
2235.00,0.0075
2234.00,0.0075
2233.00,0.0075
2232.00,0.0075
2231.00,0.0075
2230.00,0.0075
2229.00,0.0075
2228.00,0.0074
2227.00,0.0074
2226.00,0.0074
2225.00,0.0074
2224.00,0.0074
2223.00,0.0074
2222.00,0.0074
2221.00,0.0073
2220.00,0.0073
2219.00,0.0073
2218.00,0.0073
2217.00,0.0073
2216.00,0.0073
2215.00,0.0074
2214.00,0.0074
2213.00,0.0074
2212.00,0.0074
2211.00,0.0074
2210.00,0.0075
2209.00,0.0076
2208.00,0.0076
2207.00,0.0075
2206.00,0.0074
2205.00,0.0073
2204.00,0.0072
2203.00,0.0072
2202.00,0.0073
2201.00,0.0073
2200.00,0.0073
2199.00,0.0073
2198.00,0.0073
2197.00,0.0073
2196.00,0.0074
2195.00,0.0075
2194.00,0.0076
2193.00,0.0077
2192.00,0.0078
2191.00,0.0078
2190.00,0.0079
2189.00,0.0079
2188.00,0.0080
2187.00,0.0080
2186.00,0.0079
2185.00,0.0078
2184.00,0.0076
2183.00,0.0073
2182.00,0.0071
2181.00,0.0070
2180.00,0.0071
2179.00,0.0072
2178.00,0.0072
2177.00,0.0071
2176.00,0.0071
2175.00,0.0073
2174.00,0.0075
2173.00,0.0078
2172.00,0.0080
2171.00,0.0081
2170.00,0.0082
2169.00,0.0083
2168.00,0.0085
2167.00,0.0085
2166.00,0.0084
2165.00,0.0084
2164.00,0.0084
2163.00,0.0082
2162.00,0.0078
2161.00,0.0068
2160.00,0.0057
2159.00,0.0048
2158.00,0.0044
2157.00,0.0045
2156.00,0.0048
2155.00,0.0050
2154.00,0.0053
2153.00,0.0055
2152.00,0.0057
2151.00,0.0058
2150.00,0.0058
2149.00,0.0058
2148.00,0.0058
2147.00,0.0058
2146.00,0.0058
2145.00,0.0058
2144.00,0.0058
2143.00,0.0058
2142.00,0.0059
2141.00,0.0059
2140.00,0.0060
2139.00,0.0060
2138.00,0.0059
2137.00,0.0057
2136.00,0.0054
2135.00,0.0053
2134.00,0.0053
2133.00,0.0054
2132.00,0.0056
2131.00,0.0058
2130.00,0.0060
2129.00,0.0061
2128.00,0.0062
2127.00,0.0063
2126.00,0.0065
2125.00,0.0066
2124.00,0.0066
2123.00,0.0067
2122.00,0.0067
2121.00,0.0067
2120.00,0.0068
2119.00,0.0068
2118.00,0.0069
2117.00,0.0070
2116.00,0.0070
2115.00,0.0070
2114.00,0.0070
2113.00,0.0070
2112.00,0.0070
2111.00,0.0070
2110.00,0.0070
2109.00,0.0070
2108.00,0.0070
2107.00,0.0070
2106.00,0.0069
2105.00,0.0069
2104.00,0.0068
2103.00,0.0068
2102.00,0.0068
2101.00,0.0069
2100.00,0.0069
2099.00,0.0068
2098.00,0.0066
2097.00,0.0064
2096.00,0.0062
2095.00,0.0061
2094.00,0.0062
2093.00,0.0063
2092.00,0.0065
2091.00,0.0065
2090.00,0.0065
2089.00,0.0066
2088.00,0.0066
2087.00,0.0068
2086.00,0.0069
2085.00,0.0070
2084.00,0.0070
2083.00,0.0070
2082.00,0.0070
2081.00,0.0070
2080.00,0.0070
2079.00,0.0070
2078.00,0.0070
2077.00,0.0070
2076.00,0.0070
2075.00,0.0070
2074.00,0.0070
2073.00,0.0070
2072.00,0.0070
2071.00,0.0069
2070.00,0.0069
2069.00,0.0070
2068.00,0.0070
2067.00,0.0069
2066.00,0.0068
2065.00,0.0067
2064.00,0.0066
2063.00,0.0066
2062.00,0.0065
2061.00,0.0065
2060.00,0.0065
2059.00,0.0066
2058.00,0.0067
2057.00,0.0067
2056.00,0.0067
2055.00,0.0066
2054.00,0.0067
2053.00,0.0070
2052.00,0.0074
2051.00,0.0075
2050.00,0.0073
2049.00,0.0069
2048.00,0.0066
2047.00,0.0062
2046.00,0.0060
2045.00,0.0059
2044.00,0.0058
2043.00,0.0057
2042.00,0.0056
2041.00,0.0056
2040.00,0.0056
2039.00,0.0057
2038.00,0.0058
2037.00,0.0057
2036.00,0.0055
2035.00,0.0052
2034.00,0.0050
2033.00,0.0048
2032.00,0.0047
2031.00,0.0047
2030.00,0.0047
2029.00,0.0048
2028.00,0.0049
2027.00,0.0048
2026.00,0.0047
2025.00,0.0047
2024.00,0.0047
2023.00,0.0046
2022.00,0.0046
2021.00,0.0045
2020.00,0.0046
2019.00,0.0047
2018.00,0.0048
2017.00,0.0048
2016.00,0.0047
2015.00,0.0047
2014.00,0.0047
2013.00,0.0048
2012.00,0.0049
2011.00,0.0049
2010.00,0.0048
2009.00,0.0047
2008.00,0.0044
2007.00,0.0042
2006.00,0.0041
2005.00,0.0040
2004.00,0.0040
2003.00,0.0041
2002.00,0.0042
2001.00,0.0043
2000.00,0.0045
1999.00,0.0045
1998.00,0.0046
1997.00,0.0046
1996.00,0.0047
1995.00,0.0047
1994.00,0.0046
1993.00,0.0046
1992.00,0.0045
1991.00,0.0045
1990.00,0.0045
1989.00,0.0045
1988.00,0.0046
1987.00,0.0047
1986.00,0.0049
1985.00,0.0051
1984.00,0.0053
1983.00,0.0055
1982.00,0.0057
1981.00,0.0057
1980.00,0.0054
1979.00,0.0050
1978.00,0.0044
1977.00,0.0040
1976.00,0.0038
1975.00,0.0037
1974.00,0.0038
1973.00,0.0039
1972.00,0.0040
1971.00,0.0040
1970.00,0.0040
1969.00,0.0040
1968.00,0.0041
1967.00,0.0042
1966.00,0.0043
1965.00,0.0044
1964.00,0.0045
1963.00,0.0045
1962.00,0.0045
1961.00,0.0044
1960.00,0.0043
1959.00,0.0043
1958.00,0.0044
1957.00,0.0045
1956.00,0.0047
1955.00,0.0049
1954.00,0.0050
1953.00,0.0051
1952.00,0.0052
1951.00,0.0053
1950.00,0.0053
1949.00,0.0052
1948.00,0.0051
1947.00,0.0051
1946.00,0.0051
1945.00,0.0052
1944.00,0.0054
1943.00,0.0055
1942.00,0.0055
1941.00,0.0054
1940.00,0.0054
1939.00,0.0055
1938.00,0.0056
1937.00,0.0057
1936.00,0.0057
1935.00,0.0057
1934.00,0.0057
1933.00,0.0057
1932.00,0.0058
1931.00,0.0058
1930.00,0.0058
1929.00,0.0057
1928.00,0.0057
1927.00,0.0057
1926.00,0.0057
1925.00,0.0057
1924.00,0.0057
1923.00,0.0057
1922.00,0.0058
1921.00,0.0059
1920.00,0.0059
1919.00,0.0060
1918.00,0.0060
1917.00,0.0060
1916.00,0.0060
1915.00,0.0059
1914.00,0.0059
1913.00,0.0059
1912.00,0.0060
1911.00,0.0060
1910.00,0.0060
1909.00,0.0060
1908.00,0.0061
1907.00,0.0061
1906.00,0.0062
1905.00,0.0062
1904.00,0.0062
1903.00,0.0062
1902.00,0.0061
1901.00,0.0061
1900.00,0.0061
1899.00,0.0061
1898.00,0.0061
1897.00,0.0061
1896.00,0.0061
1895.00,0.0062
1894.00,0.0062
1893.00,0.0063
1892.00,0.0063
1891.00,0.0063
1890.00,0.0063
1889.00,0.0063
1888.00,0.0063
1887.00,0.0063
1886.00,0.0063
1885.00,0.0063
1884.00,0.0063
1883.00,0.0063
1882.00,0.0063
1881.00,0.0063
1880.00,0.0063
1879.00,0.0063
1878.00,0.0062
1877.00,0.0063
1876.00,0.0063
1875.00,0.0063
1874.00,0.0063
1873.00,0.0063
1872.00,0.0063
1871.00,0.0063
1870.00,0.0063
1869.00,0.0063
1868.00,0.0063
1867.00,0.0063
1866.00,0.0064
1865.00,0.0064
1864.00,0.0064
1863.00,0.0063
1862.00,0.0063
1861.00,0.0063
1860.00,0.0063
1859.00,0.0063
1858.00,0.0063
1857.00,0.0063
1856.00,0.0063
1855.00,0.0063
1854.00,0.0063
1853.00,0.0063
1852.00,0.0063
1851.00,0.0064
1850.00,0.0064
1849.00,0.0064
1848.00,0.0064
1847.00,0.0064
1846.00,0.0065
1845.00,0.0065
1844.00,0.0065
1843.00,0.0064
1842.00,0.0064
1841.00,0.0064
1840.00,0.0063
1839.00,0.0063
1838.00,0.0063
1837.00,0.0063
1836.00,0.0063
1835.00,0.0063
1834.00,0.0063
1833.00,0.0063
1832.00,0.0062
1831.00,0.0063
1830.00,0.0063
1829.00,0.0063
1828.00,0.0063
1827.00,0.0063
1826.00,0.0063
1825.00,0.0062
1824.00,0.0062
1823.00,0.0063
1822.00,0.0063
1821.00,0.0062
1820.00,0.0062
1819.00,0.0061
1818.00,0.0060
1817.00,0.0060
1816.00,0.0060
1815.00,0.0061
1814.00,0.0061
1813.00,0.0062
1812.00,0.0062
1811.00,0.0063
1810.00,0.0063
1809.00,0.0063
1808.00,0.0063
1807.00,0.0063
1806.00,0.0063
1805.00,0.0063
1804.00,0.0063
1803.00,0.0063
1802.00,0.0063
1801.00,0.0063
1800.00,0.0063
1799.00,0.0063
1798.00,0.0063
1797.00,0.0063
1796.00,0.0063
1795.00,0.0064
1794.00,0.0064
1793.00,0.0064
1792.00,0.0065
1791.00,0.0065
1790.00,0.0065
1789.00,0.0065
1788.00,0.0065
1787.00,0.0065
1786.00,0.0065
1785.00,0.0065
1784.00,0.0065
1783.00,0.0065
1782.00,0.0066
1781.00,0.0066
1780.00,0.0066
1779.00,0.0065
1778.00,0.0065
1777.00,0.0065
1776.00,0.0065
1775.00,0.0065
1774.00,0.0065
1773.00,0.0065
1772.00,0.0066
1771.00,0.0066
1770.00,0.0065
1769.00,0.0065
1768.00,0.0065
1767.00,0.0065
1766.00,0.0065
1765.00,0.0065
1764.00,0.0066
1763.00,0.0066
1762.00,0.0066
1761.00,0.0065
1760.00,0.0065
1759.00,0.0064
1758.00,0.0064
1757.00,0.0064
1756.00,0.0064
1755.00,0.0064
1754.00,0.0064
1753.00,0.0064
1752.00,0.0063
1751.00,0.0063
1750.00,0.0062
1749.00,0.0062
1748.00,0.0062
1747.00,0.0061
1746.00,0.0061
1745.00,0.0060
1744.00,0.0060
1743.00,0.0060
1742.00,0.0060
1741.00,0.0060
1740.00,0.0059
1739.00,0.0059
1738.00,0.0058
1737.00,0.0058
1736.00,0.0058
1735.00,0.0057
1734.00,0.0057
1733.00,0.0056
1732.00,0.0056
1731.00,0.0057
1730.00,0.0057
1729.00,0.0057
1728.00,0.0057
1727.00,0.0057
1726.00,0.0056
1725.00,0.0056
1724.00,0.0056
1723.00,0.0056
1722.00,0.0055
1721.00,0.0055
1720.00,0.0055
1719.00,0.0055
1718.00,0.0055
1717.00,0.0055
1716.00,0.0055
1715.00,0.0054
1714.00,0.0054
1713.00,0.0054
1712.00,0.0054
1711.00,0.0053
1710.00,0.0053
1709.00,0.0053
1708.00,0.0053
1707.00,0.0054
1706.00,0.0055
1705.00,0.0055
1704.00,0.0056
1703.00,0.0057
1702.00,0.0057
1701.00,0.0058
1700.00,0.0059
1699.00,0.0060
1698.00,0.0060
1697.00,0.0061
1696.00,0.0061
1695.00,0.0061
1694.00,0.0062
1693.00,0.0062
1692.00,0.0062
1691.00,0.0063
1690.00,0.0063
1689.00,0.0063
1688.00,0.0063
1687.00,0.0063
1686.00,0.0064
1685.00,0.0064
1684.00,0.0064
1683.00,0.0065
1682.00,0.0065
1681.00,0.0066
1680.00,0.0066
1679.00,0.0066
1678.00,0.0067
1677.00,0.0067
1676.00,0.0067
1675.00,0.0068
1674.00,0.0068
1673.00,0.0068
1672.00,0.0068
1671.00,0.0068
1670.00,0.0068
1669.00,0.0068
1668.00,0.0068
1667.00,0.0068
1666.00,0.0069
1665.00,0.0069
1664.00,0.0069
1663.00,0.0069
1662.00,0.0069
1661.00,0.0069
1660.00,0.0069
1659.00,0.0069
1658.00,0.0068
1657.00,0.0068
1656.00,0.0069
1655.00,0.0069
1654.00,0.0069
1653.00,0.0069
1652.00,0.0069
1651.00,0.0068
1650.00,0.0068
1649.00,0.0068
1648.00,0.0068
1647.00,0.0068
1646.00,0.0068
1645.00,0.0068
1644.00,0.0067
1643.00,0.0067
1642.00,0.0067
1641.00,0.0067
1640.00,0.0067
1639.00,0.0067
1638.00,0.0067
1637.00,0.0066
1636.00,0.0066
1635.00,0.0067
1634.00,0.0067
1633.00,0.0067
1632.00,0.0067
1631.00,0.0067
1630.00,0.0067
1629.00,0.0067
1628.00,0.0067
1627.00,0.0067
1626.00,0.0067
1625.00,0.0067
1624.00,0.0068
1623.00,0.0068
1622.00,0.0068
1621.00,0.0068
1620.00,0.0068
1619.00,0.0068
1618.00,0.0068
1617.00,0.0068
1616.00,0.0069
1615.00,0.0069
1614.00,0.0069
1613.00,0.0068
1612.00,0.0068
1611.00,0.0069
1610.00,0.0069
1609.00,0.0069
1608.00,0.0069
1607.00,0.0069
1606.00,0.0069
1605.00,0.0070
1604.00,0.0070
1603.00,0.0070
1602.00,0.0070
1601.00,0.0070
1600.00,0.0070
1599.00,0.0071
1598.00,0.0071
1597.00,0.0071
1596.00,0.0071
1595.00,0.0071
1594.00,0.0072
1593.00,0.0072
1592.00,0.0072
1591.00,0.0073
1590.00,0.0073
1589.00,0.0073
1588.00,0.0073
1587.00,0.0074
1586.00,0.0074
1585.00,0.0074
1584.00,0.0074
1583.00,0.0074
1582.00,0.0074
1581.00,0.0074
1580.00,0.0074
1579.00,0.0074
1578.00,0.0075
1577.00,0.0075
1576.00,0.0075
1575.00,0.0075
1574.00,0.0075
1573.00,0.0076
1572.00,0.0076
1571.00,0.0076
1570.00,0.0077
1569.00,0.0077
1568.00,0.0078
1567.00,0.0078
1566.00,0.0078
1565.00,0.0078
1564.00,0.0078
1563.00,0.0078
1562.00,0.0078
1561.00,0.0078
1560.00,0.0078
1559.00,0.0078
1558.00,0.0079
1557.00,0.0079
1556.00,0.0079
1555.00,0.0079
1554.00,0.0079
1553.00,0.0080
1552.00,0.0080
1551.00,0.0080
1550.00,0.0080
1549.00,0.0081
1548.00,0.0081
1547.00,0.0082
1546.00,0.0082
1545.00,0.0082
1544.00,0.0082
1543.00,0.0083
1542.00,0.0083
1541.00,0.0083
1540.00,0.0084
1539.00,0.0084
1538.00,0.0085
1537.00,0.0085
1536.00,0.0085
1535.00,0.0085
1534.00,0.0086
1533.00,0.0086
1532.00,0.0087
1531.00,0.0087
1530.00,0.0087
1529.00,0.0088
1528.00,0.0089
1527.00,0.0089
1526.00,0.0089
1525.00,0.0090
1524.00,0.0090
1523.00,0.0091
1522.00,0.0091
1521.00,0.0092
1520.00,0.0092
1519.00,0.0093
1518.00,0.0093
1517.00,0.0094
1516.00,0.0094
1515.00,0.0095
1514.00,0.0095
1513.00,0.0096
1512.00,0.0097
1511.00,0.0098
1510.00,0.0099
1509.00,0.0099
1508.00,0.0100
1507.00,0.0101
1506.00,0.0102
1505.00,0.0104
1504.00,0.0105
1503.00,0.0106
1502.00,0.0106
1501.00,0.0107
1500.00,0.0109
1499.00,0.0110
1498.00,0.0111
1497.00,0.0113
1496.00,0.0115
1495.00,0.0116
1494.00,0.0118
1493.00,0.0120
1492.00,0.0121
1491.00,0.0123
1490.00,0.0125
1489.00,0.0128
1488.00,0.0131
1487.00,0.0134
1486.00,0.0137
1485.00,0.0140
1484.00,0.0143
1483.00,0.0147
1482.00,0.0151
1481.00,0.0155
1480.00,0.0160
1479.00,0.0165
1478.00,0.0170
1477.00,0.0177
1476.00,0.0184
1475.00,0.0191
1474.00,0.0199
1473.00,0.0210
1472.00,0.0221
1471.00,0.0233
1470.00,0.0244
1469.00,0.0257
1468.00,0.0270
1467.00,0.0286
1466.00,0.0305
1465.00,0.0328
1464.00,0.0353
1463.00,0.0378
1462.00,0.0401
1461.00,0.0419
1460.00,0.0433
1459.00,0.0439
1458.00,0.0437
1457.00,0.0428
1456.00,0.0418
1455.00,0.0409
1454.00,0.0404
1453.00,0.0400
1452.00,0.0399
1451.00,0.0399
1450.00,0.0402
1449.00,0.0405
1448.00,0.0411
1447.00,0.0416
1446.00,0.0422
1445.00,0.0426
1444.00,0.0429
1443.00,0.0431
1442.00,0.0430
1441.00,0.0427
1440.00,0.0423
1439.00,0.0418
1438.00,0.0412
1437.00,0.0407
1436.00,0.0403
1435.00,0.0401
1434.00,0.0399
1433.00,0.0398
1432.00,0.0398
1431.00,0.0399
1430.00,0.0400
1429.00,0.0401
1428.00,0.0401
1427.00,0.0400
1426.00,0.0397
1425.00,0.0393
1424.00,0.0388
1423.00,0.0383
1422.00,0.0377
1421.00,0.0372
1420.00,0.0366
1419.00,0.0361
1418.00,0.0357
1417.00,0.0354
1416.00,0.0351
1415.00,0.0350
1414.00,0.0348
1413.00,0.0348
1412.00,0.0348
1411.00,0.0347
1410.00,0.0347
1409.00,0.0346
1408.00,0.0344
1407.00,0.0341
1406.00,0.0338
1405.00,0.0333
1404.00,0.0327
1403.00,0.0321
1402.00,0.0314
1401.00,0.0307
1400.00,0.0300
1399.00,0.0293
1398.00,0.0286
1397.00,0.0279
1396.00,0.0274
1395.00,0.0269
1394.00,0.0265
1393.00,0.0262
1392.00,0.0262
1391.00,0.0265
1390.00,0.0271
1389.00,0.0281
1388.00,0.0297
1387.00,0.0318
1386.00,0.0342
1385.00,0.0366
1384.00,0.0389
1383.00,0.0408
1382.00,0.0422
1381.00,0.0430
1380.00,0.0432
1379.00,0.0431
1378.00,0.0429
1377.00,0.0427
1376.00,0.0428
1375.00,0.0431
1374.00,0.0436
1373.00,0.0442
1372.00,0.0445
1371.00,0.0442
1370.00,0.0431
1369.00,0.0415
1368.00,0.0396
1367.00,0.0379
1366.00,0.0366
1365.00,0.0355
1364.00,0.0346
1363.00,0.0339
1362.00,0.0332
1361.00,0.0325
1360.00,0.0319
1359.00,0.0314
1358.00,0.0309
1357.00,0.0307
1356.00,0.0308
1355.00,0.0312
1354.00,0.0319
1353.00,0.0328
1352.00,0.0339
1351.00,0.0352
1350.00,0.0364
1349.00,0.0374
1348.00,0.0382
1347.00,0.0388
1346.00,0.0394
1345.00,0.0403
1344.00,0.0416
1343.00,0.0435
1342.00,0.0456
1341.00,0.0475
1340.00,0.0486
1339.00,0.0487
1338.00,0.0478
1337.00,0.0463
1336.00,0.0447
1335.00,0.0432
1334.00,0.0421
1333.00,0.0416
1332.00,0.0414
1331.00,0.0414
1330.00,0.0410
1329.00,0.0399
1328.00,0.0378
1327.00,0.0352
1326.00,0.0325
1325.00,0.0301
1324.00,0.0281
1323.00,0.0264
1322.00,0.0251
1321.00,0.0241
1320.00,0.0232
1319.00,0.0226
1318.00,0.0220
1317.00,0.0216
1316.00,0.0212
1315.00,0.0208
1314.00,0.0205
1313.00,0.0203
1312.00,0.0200
1311.00,0.0199
1310.00,0.0198
1309.00,0.0198
1308.00,0.0199
1307.00,0.0201
1306.00,0.0204
1305.00,0.0209
1304.00,0.0215
1303.00,0.0223
1302.00,0.0232
1301.00,0.0243
1300.00,0.0254
1299.00,0.0265
1298.00,0.0274
1297.00,0.0280
1296.00,0.0282
1295.00,0.0280
1294.00,0.0274
1293.00,0.0267
1292.00,0.0260
1291.00,0.0254
1290.00,0.0249
1289.00,0.0247
1288.00,0.0246
1287.00,0.0248
1286.00,0.0251
1285.00,0.0255
1284.00,0.0259
1283.00,0.0261
1282.00,0.0262
1281.00,0.0262
1280.00,0.0260
1279.00,0.0258
1278.00,0.0255
1277.00,0.0251
1276.00,0.0248
1275.00,0.0246
1274.00,0.0245
1273.00,0.0244
1272.00,0.0243
1271.00,0.0241
1270.00,0.0239
1269.00,0.0236
1268.00,0.0232
1267.00,0.0227
1266.00,0.0222
1265.00,0.0216
1264.00,0.0211
1263.00,0.0205
1262.00,0.0200
1261.00,0.0195
1260.00,0.0191
1259.00,0.0187
1258.00,0.0183
1257.00,0.0180
1256.00,0.0177
1255.00,0.0175
1254.00,0.0173
1253.00,0.0171
1252.00,0.0170
1251.00,0.0168
1250.00,0.0166
1249.00,0.0164
1248.00,0.0163
1247.00,0.0161
1246.00,0.0159
1245.00,0.0158
1244.00,0.0157
1243.00,0.0156
1242.00,0.0156
1241.00,0.0156
1240.00,0.0157
1239.00,0.0159
1238.00,0.0161
1237.00,0.0165
1236.00,0.0170
1235.00,0.0176
1234.00,0.0185
1233.00,0.0195
1232.00,0.0209
1231.00,0.0227
1230.00,0.0250
1229.00,0.0280
1228.00,0.0315
1227.00,0.0352
1226.00,0.0386
1225.00,0.0411
1224.00,0.0422
1223.00,0.0417
1222.00,0.0398
1221.00,0.0370
1220.00,0.0337
1219.00,0.0306
1218.00,0.0277
1217.00,0.0254
1216.00,0.0236
1215.00,0.0222
1214.00,0.0214
1213.00,0.0209
1212.00,0.0209
1211.00,0.0213
1210.00,0.0220
1209.00,0.0232
1208.00,0.0250
1207.00,0.0273
1206.00,0.0299
1205.00,0.0325
1204.00,0.0345
1203.00,0.0352
1202.00,0.0347
1201.00,0.0330
1200.00,0.0308
1199.00,0.0285
1198.00,0.0264
1197.00,0.0246
1196.00,0.0231
1195.00,0.0219
1194.00,0.0210
1193.00,0.0202
1192.00,0.0195
1191.00,0.0190
1190.00,0.0185
1189.00,0.0181
1188.00,0.0177
1187.00,0.0174
1186.00,0.0171
1185.00,0.0169
1184.00,0.0167
1183.00,0.0166
1182.00,0.0164
1181.00,0.0164
1180.00,0.0163
1179.00,0.0163
1178.00,0.0163
1177.00,0.0163
1176.00,0.0164
1175.00,0.0165
1174.00,0.0167
1173.00,0.0170
1172.00,0.0174
1171.00,0.0178
1170.00,0.0184
1169.00,0.0191
1168.00,0.0198
1167.00,0.0207
1166.00,0.0216
1165.00,0.0228
1164.00,0.0242
1163.00,0.0259
1162.00,0.0281
1161.00,0.0307
1160.00,0.0338
1159.00,0.0376
1158.00,0.0419
1157.00,0.0468
1156.00,0.0522
1155.00,0.0580
1154.00,0.0640
1153.00,0.0701
1152.00,0.0761
1151.00,0.0818
1150.00,0.0870
1149.00,0.0912
1148.00,0.0943
1147.00,0.0960
1146.00,0.0961
1145.00,0.0948
1144.00,0.0921
1143.00,0.0885
1142.00,0.0841
1141.00,0.0792
1140.00,0.0743
1139.00,0.0693
1138.00,0.0645
1137.00,0.0601
1136.00,0.0562
1135.00,0.0528
1134.00,0.0502
1133.00,0.0483
1132.00,0.0469
1131.00,0.0459
1130.00,0.0450
1129.00,0.0441
1128.00,0.0434
1127.00,0.0433
1126.00,0.0439
1125.00,0.0457
1124.00,0.0489
1123.00,0.0534
1122.00,0.0589
1121.00,0.0648
1120.00,0.0704
1119.00,0.0750
1118.00,0.0787
1117.00,0.0821
1116.00,0.0860
1115.00,0.0914
1114.00,0.0983
1113.00,0.1056
1112.00,0.1119
1111.00,0.1155
1110.00,0.1163
1109.00,0.1152
1108.00,0.1137
1107.00,0.1128
1106.00,0.1129
1105.00,0.1132
1104.00,0.1127
1103.00,0.1106
1102.00,0.1065
1101.00,0.1007
1100.00,0.0939
1099.00,0.0868
1098.00,0.0799
1097.00,0.0737
1096.00,0.0682
1095.00,0.0634
1094.00,0.0592
1093.00,0.0554
1092.00,0.0522
1091.00,0.0496
1090.00,0.0474
1089.00,0.0459
1088.00,0.0448
1087.00,0.0443
1086.00,0.0443
1085.00,0.0449
1084.00,0.0462
1083.00,0.0482
1082.00,0.0506
1081.00,0.0530
1080.00,0.0549
1079.00,0.0560
1078.00,0.0561
1077.00,0.0555
1076.00,0.0543
1075.00,0.0527
1074.00,0.0507
1073.00,0.0485
1072.00,0.0462
1071.00,0.0443
1070.00,0.0430
1069.00,0.0425
1068.00,0.0430
1067.00,0.0441
1066.00,0.0456
1065.00,0.0469
1064.00,0.0480
1063.00,0.0490
1062.00,0.0506
1061.00,0.0531
1060.00,0.0567
1059.00,0.0612
1058.00,0.0660
1057.00,0.0708
1056.00,0.0757
1055.00,0.0810
1054.00,0.0872
1053.00,0.0943
1052.00,0.1016
1051.00,0.1079
1050.00,0.1123
1049.00,0.1142
1048.00,0.1136
1047.00,0.1104
1046.00,0.1050
1045.00,0.0982
1044.00,0.0910
1043.00,0.0845
1042.00,0.0793
1041.00,0.0760
1040.00,0.0744
1039.00,0.0745
1038.00,0.0761
1037.00,0.0793
1036.00,0.0838
1035.00,0.0895
1034.00,0.0959
1033.00,0.1027
1032.00,0.1094
1031.00,0.1159
1030.00,0.1221
1029.00,0.1282
1028.00,0.1342
1027.00,0.1402
1026.00,0.1462
1025.00,0.1520
1024.00,0.1573
1023.00,0.1616
1022.00,0.1645
1021.00,0.1658
1020.00,0.1656
1019.00,0.1645
1018.00,0.1633
1017.00,0.1629
1016.00,0.1636
1015.00,0.1648
1014.00,0.1651
1013.00,0.1637
1012.00,0.1602
1011.00,0.1556
1010.00,0.1510
1009.00,0.1473
1008.00,0.1453
1007.00,0.1452
1006.00,0.1471
1005.00,0.1506
1004.00,0.1551
1003.00,0.1600
1002.00,0.1646
1001.00,0.1691
1000.00,0.1736
999.00,0.1784
998.00,0.1838
997.00,0.1896
996.00,0.1950
995.00,0.1990
994.00,0.2005
993.00,0.1991
992.00,0.1950
991.00,0.1891
990.00,0.1821
989.00,0.1746
988.00,0.1670
987.00,0.1593
986.00,0.1515
985.00,0.1439
984.00,0.1364
983.00,0.1292
982.00,0.1225
981.00,0.1164
980.00,0.1107
979.00,0.1054
978.00,0.1006
977.00,0.0962
976.00,0.0921
975.00,0.0884
974.00,0.0849
973.00,0.0816
972.00,0.0786
971.00,0.0758
970.00,0.0731
969.00,0.0707
968.00,0.0684
967.00,0.0663
966.00,0.0644
965.00,0.0625
964.00,0.0608
963.00,0.0592
962.00,0.0576
961.00,0.0560
960.00,0.0546
959.00,0.0531
958.00,0.0518
957.00,0.0505
956.00,0.0493
955.00,0.0482
954.00,0.0471
953.00,0.0460
952.00,0.0450
951.00,0.0440
950.00,0.0431
949.00,0.0422
948.00,0.0413
947.00,0.0405
946.00,0.0396
945.00,0.0388
944.00,0.0381
943.00,0.0374
942.00,0.0367
941.00,0.0360
940.00,0.0354
939.00,0.0349
938.00,0.0344
937.00,0.0339
936.00,0.0335
935.00,0.0331
934.00,0.0327
933.00,0.0324
932.00,0.0322
931.00,0.0321
930.00,0.0320
929.00,0.0322
928.00,0.0324
927.00,0.0328
926.00,0.0334
925.00,0.0343
924.00,0.0357
923.00,0.0382
922.00,0.0419
921.00,0.0473
920.00,0.0543
919.00,0.0620
918.00,0.0694
917.00,0.0751
916.00,0.0780
915.00,0.0776
914.00,0.0742
913.00,0.0689
912.00,0.0629
911.00,0.0572
910.00,0.0522
909.00,0.0481
908.00,0.0448
907.00,0.0420
906.00,0.0398
905.00,0.0380
904.00,0.0364
903.00,0.0351
902.00,0.0340
901.00,0.0331
900.00,0.0322
899.00,0.0315
898.00,0.0308
897.00,0.0302
896.00,0.0297
895.00,0.0292
894.00,0.0288
893.00,0.0284
892.00,0.0281
891.00,0.0278
890.00,0.0275
889.00,0.0272
888.00,0.0268
887.00,0.0265
886.00,0.0262
885.00,0.0260
884.00,0.0258
883.00,0.0256
882.00,0.0254
881.00,0.0252
880.00,0.0251
879.00,0.0249
878.00,0.0249
877.00,0.0248
876.00,0.0247
875.00,0.0247
874.00,0.0246
873.00,0.0246
872.00,0.0245
871.00,0.0245
870.00,0.0244
869.00,0.0243
868.00,0.0243
867.00,0.0243
866.00,0.0243
865.00,0.0244
864.00,0.0246
863.00,0.0248
862.00,0.0250
861.00,0.0254
860.00,0.0259
859.00,0.0265
858.00,0.0272
857.00,0.0281
856.00,0.0290
855.00,0.0299
854.00,0.0306
853.00,0.0311
852.00,0.0313
851.00,0.0313
850.00,0.0312
849.00,0.0313
848.00,0.0317
847.00,0.0327
846.00,0.0344
845.00,0.0370
844.00,0.0408
843.00,0.0460
842.00,0.0527
841.00,0.0604
840.00,0.0679
839.00,0.0733
838.00,0.0751
837.00,0.0728
836.00,0.0675
835.00,0.0608
834.00,0.0543
833.00,0.0485
832.00,0.0438
831.00,0.0400
830.00,0.0370
829.00,0.0347
828.00,0.0329
827.00,0.0316
826.00,0.0306
825.00,0.0297
824.00,0.0291
823.00,0.0285
822.00,0.0281
821.00,0.0279
820.00,0.0277
819.00,0.0275
818.00,0.0273
817.00,0.0272
816.00,0.0271
815.00,0.0271
814.00,0.0270
813.00,0.0270
812.00,0.0271
811.00,0.0271
810.00,0.0272
809.00,0.0273
808.00,0.0274
807.00,0.0275
806.00,0.0276
805.00,0.0278
804.00,0.0280
803.00,0.0282
802.00,0.0284
801.00,0.0287
800.00,0.0290
799.00,0.0293
798.00,0.0296
797.00,0.0299
796.00,0.0302
795.00,0.0306
794.00,0.0311
793.00,0.0315
792.00,0.0320
791.00,0.0326
790.00,0.0333
789.00,0.0342
788.00,0.0353
787.00,0.0367
786.00,0.0383
785.00,0.0405
784.00,0.0432
783.00,0.0468
782.00,0.0512
781.00,0.0564
780.00,0.0623
779.00,0.0681
778.00,0.0735
777.00,0.0777
776.00,0.0806
775.00,0.0819
774.00,0.0818
773.00,0.0805
772.00,0.0781
771.00,0.0751
770.00,0.0718
769.00,0.0684
768.00,0.0653
767.00,0.0626
766.00,0.0602
765.00,0.0582
764.00,0.0567
763.00,0.0554
762.00,0.0544
761.00,0.0537
760.00,0.0531
759.00,0.0528
758.00,0.0526
757.00,0.0526
756.00,0.0527
755.00,0.0529
754.00,0.0530
753.00,0.0533
752.00,0.0536
751.00,0.0540
750.00,0.0545
749.00,0.0549
748.00,0.0554
747.00,0.0560
746.00,0.0565
745.00,0.0571
744.00,0.0577
743.00,0.0582
742.00,0.0587
741.00,0.0591
740.00,0.0596
739.00,0.0600
738.00,0.0603
737.00,0.0606
736.00,0.0609
735.00,0.0612
734.00,0.0615
733.00,0.0617
732.00,0.0619
731.00,0.0620
730.00,0.0621
729.00,0.0622
728.00,0.0623
727.00,0.0623
726.00,0.0623
725.00,0.0623
724.00,0.0623
723.00,0.0623
722.00,0.0623
721.00,0.0624
720.00,0.0624
719.00,0.0625
718.00,0.0625
717.00,0.0623
716.00,0.0621
715.00,0.0617
714.00,0.0612
713.00,0.0607
712.00,0.0602
711.00,0.0597
710.00,0.0592
709.00,0.0588
708.00,0.0583
707.00,0.0579
706.00,0.0574
705.00,0.0570
704.00,0.0567
703.00,0.0564
702.00,0.0562
701.00,0.0560
700.00,0.0558
699.00,0.0556
698.00,0.0555
697.00,0.0553
696.00,0.0553
695.00,0.0552
694.00,0.0553
693.00,0.0553
692.00,0.0554
691.00,0.0554
690.00,0.0555
689.00,0.0556
688.00,0.0558
687.00,0.0560
686.00,0.0562
685.00,0.0565
684.00,0.0568
683.00,0.0572
682.00,0.0575
681.00,0.0578
680.00,0.0582
679.00,0.0586
678.00,0.0590
677.00,0.0595
676.00,0.0600
675.00,0.0605
674.00,0.0611
673.00,0.0617
672.00,0.0623
671.00,0.0629
670.00,0.0636
669.00,0.0647
668.00,0.0662
667.00,0.0677
666.00,0.0685
665.00,0.0691
664.00,0.0699
663.00,0.0710
662.00,0.0725
661.00,0.0742
660.00,0.0761
659.00,0.0783
658.00,0.0806
657.00,0.0833
656.00,0.0864
655.00,0.0898
654.00,0.0935
653.00,0.0974
652.00,0.1013
651.00,0.1051
650.00,0.1085
649.00,0.1114
648.00,0.1136
647.00,0.1150
646.00,0.1154
645.00,0.1151
644.00,0.1142
643.00,0.1130
642.00,0.1118
641.00,0.1109
640.00,0.1105
639.00,0.1108
638.00,0.1115
637.00,0.1125
636.00,0.1139
635.00,0.1155
634.00,0.1170
633.00,0.1187
632.00,0.1204
631.00,0.1222
630.00,0.1239
629.00,0.1257
628.00,0.1275
627.00,0.1293
626.00,0.1310
625.00,0.1326
624.00,0.1341
623.00,0.1355
622.00,0.1367
621.00,0.1380
620.00,0.1392
619.00,0.1401
618.00,0.1408
617.00,0.1413
616.00,0.1418
615.00,0.1420
614.00,0.1420
613.00,0.1419
612.00,0.1417
611.00,0.1413
610.00,0.1407
609.00,0.1399
608.00,0.1392
607.00,0.1384
606.00,0.1376
605.00,0.1367
604.00,0.1359
603.00,0.1351
602.00,0.1341
601.00,0.1331
600.00,0.1321
599.00,0.1309
598.00,0.1293
597.00,0.1274
596.00,0.1254
595.00,0.1230
594.00,0.1201
593.00,0.1170
592.00,0.1137
591.00,0.1105
590.00,0.1076
589.00,0.1052
588.00,0.1034
587.00,0.1020
586.00,0.1009
585.00,0.1001
584.00,0.0996
583.00,0.0993
582.00,0.0990
581.00,0.0989
580.00,0.0988
579.00,0.0986
578.00,0.0983
577.00,0.0980
576.00,0.0978
575.00,0.0978
574.00,0.0979
573.00,0.0979
572.00,0.0981
571.00,0.0983
570.00,0.0986
569.00,0.0990
568.00,0.0995
567.00,0.1002
566.00,0.1010
565.00,0.1020
564.00,0.1032
563.00,0.1047
562.00,0.1065
561.00,0.1086
560.00,0.1108
559.00,0.1129
558.00,0.1144
557.00,0.1153
556.00,0.1154
555.00,0.1149
554.00,0.1139
553.00,0.1127
552.00,0.1115
551.00,0.1104
550.00,0.1093
549.00,0.1085
548.00,0.1083
547.00,0.1084
546.00,0.1088
545.00,0.1090
544.00,0.1089
543.00,0.1082
542.00,0.1076
541.00,0.1077
540.00,0.1087
539.00,0.1101
538.00,0.1113
537.00,0.1118
536.00,0.1115
535.00,0.1106
534.00,0.1093
533.00,0.1079
532.00,0.1066
531.00,0.1054
530.00,0.1041
529.00,0.1029
528.00,0.1018
527.00,0.1007
526.00,0.0995
525.00,0.0983
524.00,0.0970
523.00,0.0958
522.00,0.0945
521.00,0.0933
520.00,0.0924
519.00,0.0917
518.00,0.0911
517.00,0.0906
516.00,0.0902
515.00,0.0898
514.00,0.0890
513.00,0.0880
512.00,0.0868
511.00,0.0854
510.00,0.0839
509.00,0.0826
508.00,0.0815
507.00,0.0807
506.00,0.0798
505.00,0.0789
504.00,0.0779
503.00,0.0769
502.00,0.0760
501.00,0.0753
500.00,0.0747
499.00,0.0741
498.00,0.0734
497.00,0.0727
496.00,0.0719
495.00,0.0712
494.00,0.0705
493.00,0.0698
492.00,0.0692
491.00,0.0685
490.00,0.0679
489.00,0.0672
488.00,0.0667
487.00,0.0661
486.00,0.0655
485.00,0.0650
484.00,0.0645
483.00,0.0641
482.00,0.0636
481.00,0.0632
480.00,0.0627
479.00,0.0623
478.00,0.0618
477.00,0.0611
476.00,0.0603
475.00,0.0595
474.00,0.0589
473.00,0.0584
472.00,0.0579
471.00,0.0574
470.00,0.0570
469.00,0.0565
468.00,0.0561
467.00,0.0557
466.00,0.0553
465.00,0.0549
464.00,0.0545
463.00,0.0541
462.00,0.0536
461.00,0.0530
460.00,0.0524
459.00,0.0518
458.00,0.0514
457.00,0.0511
456.00,0.0507
455.00,0.0501
454.00,0.0494
453.00,0.0487
452.00,0.0482
451.00,0.0479
450.00,0.0475
449.00,0.0469
448.00,0.0462
447.00,0.0458
446.00,0.0457
445.00,0.0459
444.00,0.0462
443.00,0.0465
442.00,0.0470
441.00,0.0480
440.00,0.0496
439.00,0.0521
438.00,0.0555
437.00,0.0595
436.00,0.0633
435.00,0.0658
434.00,0.0660
433.00,0.0640
432.00,0.0608
431.00,0.0572
430.00,0.0540
429.00,0.0517
428.00,0.0505
427.00,0.0505
426.00,0.0513
425.00,0.0526
424.00,0.0539
423.00,0.0549
422.00,0.0552
421.00,0.0548
420.00,0.0536
419.00,0.0520
418.00,0.0509
417.00,0.0507
416.00,0.0512
415.00,0.0522
414.00,0.0536
413.00,0.0556
412.00,0.0585
411.00,0.0628
410.00,0.0683
409.00,0.0747
408.00,0.0812
407.00,0.0867
406.00,0.0900
405.00,0.0902
404.00,0.0873
403.00,0.0820
402.00,0.0754
401.00,0.0689
400.00,0.0633
