Created as New Dataset,Sample 859 By YargerLab Date Saturday, April 18 2026
cm-1,A
4000.00,0.0010
3999.00,0.0010
3998.00,0.0010
3997.00,0.0010
3996.00,0.0010
3995.00,0.0010
3994.00,0.0010
3993.00,0.0010
3992.00,0.0010
3991.00,0.0010
3990.00,0.0010
3989.00,0.0010
3988.00,0.0011
3987.00,0.0011
3986.00,0.0011
3985.00,0.0011
3984.00,0.0011
3983.00,0.0011
3982.00,0.0011
3981.00,0.0010
3980.00,0.0010
3979.00,0.0010
3978.00,0.0010
3977.00,0.0010
3976.00,0.0010
3975.00,0.0010
3974.00,0.0010
3973.00,0.0010
3972.00,0.0009
3971.00,0.0009
3970.00,0.0009
3969.00,0.0009
3968.00,0.0008
3967.00,0.0008
3966.00,0.0008
3965.00,0.0008
3964.00,0.0008
3963.00,0.0008
3962.00,0.0008
3961.00,0.0008
3960.00,0.0008
3959.00,0.0008
3958.00,0.0008
3957.00,0.0008
3956.00,0.0008
3955.00,0.0009
3954.00,0.0009
3953.00,0.0009
3952.00,0.0009
3951.00,0.0009
3950.00,0.0009
3949.00,0.0009
3948.00,0.0009
3947.00,0.0009
3946.00,0.0009
3945.00,0.0009
3944.00,0.0010
3943.00,0.0010
3942.00,0.0010
3941.00,0.0009
3940.00,0.0009
3939.00,0.0009
3938.00,0.0009
3937.00,0.0009
3936.00,0.0009
3935.00,0.0009
3934.00,0.0009
3933.00,0.0009
3932.00,0.0009
3931.00,0.0009
3930.00,0.0009
3929.00,0.0009
3928.00,0.0009
3927.00,0.0009
3926.00,0.0009
3925.00,0.0009
3924.00,0.0009
3923.00,0.0009
3922.00,0.0009
3921.00,0.0009
3920.00,0.0009
3919.00,0.0009
3918.00,0.0009
3917.00,0.0009
3916.00,0.0010
3915.00,0.0010
3914.00,0.0010
3913.00,0.0010
3912.00,0.0011
3911.00,0.0011
3910.00,0.0011
3909.00,0.0011
3908.00,0.0011
3907.00,0.0011
3906.00,0.0011
3905.00,0.0011
3904.00,0.0012
3903.00,0.0012
3902.00,0.0013
3901.00,0.0013
3900.00,0.0013
3899.00,0.0012
3898.00,0.0012
3897.00,0.0011
3896.00,0.0011
3895.00,0.0011
3894.00,0.0011
3893.00,0.0011
3892.00,0.0011
3891.00,0.0011
3890.00,0.0011
3889.00,0.0011
3888.00,0.0011
3887.00,0.0011
3886.00,0.0010
3885.00,0.0010
3884.00,0.0010
3883.00,0.0010
3882.00,0.0010
3881.00,0.0010
3880.00,0.0010
3879.00,0.0009
3878.00,0.0009
3877.00,0.0009
3876.00,0.0009
3875.00,0.0009
3874.00,0.0009
3873.00,0.0009
3872.00,0.0009
3871.00,0.0009
3870.00,0.0009
3869.00,0.0009
3868.00,0.0009
3867.00,0.0009
3866.00,0.0009
3865.00,0.0009
3864.00,0.0008
3863.00,0.0008
3862.00,0.0008
3861.00,0.0008
3860.00,0.0008
3859.00,0.0008
3858.00,0.0008
3857.00,0.0008
3856.00,0.0009
3855.00,0.0009
3854.00,0.0009
3853.00,0.0009
3852.00,0.0010
3851.00,0.0010
3850.00,0.0010
3849.00,0.0010
3848.00,0.0009
3847.00,0.0009
3846.00,0.0009
3845.00,0.0009
3844.00,0.0010
3843.00,0.0010
3842.00,0.0010
3841.00,0.0011
3840.00,0.0011
3839.00,0.0011
3838.00,0.0011
3837.00,0.0011
3836.00,0.0011
3835.00,0.0011
3834.00,0.0011
3833.00,0.0011
3832.00,0.0011
3831.00,0.0011
3830.00,0.0010
3829.00,0.0010
3828.00,0.0010
3827.00,0.0010
3826.00,0.0010
3825.00,0.0010
3824.00,0.0010
3823.00,0.0010
3822.00,0.0010
3821.00,0.0010
3820.00,0.0010
3819.00,0.0010
3818.00,0.0011
3817.00,0.0011
3816.00,0.0011
3815.00,0.0010
3814.00,0.0010
3813.00,0.0010
3812.00,0.0010
3811.00,0.0009
3810.00,0.0009
3809.00,0.0009
3808.00,0.0009
3807.00,0.0009
3806.00,0.0009
3805.00,0.0009
3804.00,0.0009
3803.00,0.0009
3802.00,0.0009
3801.00,0.0009
3800.00,0.0009
3799.00,0.0009
3798.00,0.0009
3797.00,0.0009
3796.00,0.0008
3795.00,0.0008
3794.00,0.0008
3793.00,0.0008
3792.00,0.0008
3791.00,0.0008
3790.00,0.0008
3789.00,0.0008
3788.00,0.0008
3787.00,0.0008
3786.00,0.0008
3785.00,0.0008
3784.00,0.0009
3783.00,0.0009
3782.00,0.0009
3781.00,0.0009
3780.00,0.0009
3779.00,0.0009
3778.00,0.0009
3777.00,0.0009
3776.00,0.0009
3775.00,0.0009
3774.00,0.0009
3773.00,0.0009
3772.00,0.0010
3771.00,0.0010
3770.00,0.0010
3769.00,0.0010
3768.00,0.0010
3767.00,0.0011
3766.00,0.0011
3765.00,0.0010
3764.00,0.0010
3763.00,0.0010
3762.00,0.0010
3761.00,0.0010
3760.00,0.0010
3759.00,0.0009
3758.00,0.0009
3757.00,0.0010
3756.00,0.0010
3755.00,0.0010
3754.00,0.0011
3753.00,0.0011
3752.00,0.0011
3751.00,0.0011
3750.00,0.0011
3749.00,0.0011
3748.00,0.0011
3747.00,0.0011
3746.00,0.0011
3745.00,0.0011
3744.00,0.0010
3743.00,0.0010
3742.00,0.0010
3741.00,0.0010
3740.00,0.0009
3739.00,0.0009
3738.00,0.0009
3737.00,0.0009
3736.00,0.0009
3735.00,0.0009
3734.00,0.0009
3733.00,0.0009
3732.00,0.0009
3731.00,0.0009
3730.00,0.0009
3729.00,0.0009
3728.00,0.0009
3727.00,0.0008
3726.00,0.0008
3725.00,0.0008
3724.00,0.0008
3723.00,0.0008
3722.00,0.0008
3721.00,0.0009
3720.00,0.0009
3719.00,0.0008
3718.00,0.0008
3717.00,0.0008
3716.00,0.0008
3715.00,0.0008
3714.00,0.0008
3713.00,0.0008
3712.00,0.0008
3711.00,0.0008
3710.00,0.0008
3709.00,0.0008
3708.00,0.0008
3707.00,0.0008
3706.00,0.0008
3705.00,0.0007
3704.00,0.0007
3703.00,0.0007
3702.00,0.0007
3701.00,0.0007
3700.00,0.0006
3699.00,0.0006
3698.00,0.0006
3697.00,0.0006
3696.00,0.0007
3695.00,0.0007
3694.00,0.0007
3693.00,0.0007
3692.00,0.0007
3691.00,0.0007
3690.00,0.0007
3689.00,0.0007
3688.00,0.0007
3687.00,0.0007
3686.00,0.0007
3685.00,0.0006
3684.00,0.0006
3683.00,0.0006
3682.00,0.0005
3681.00,0.0005
3680.00,0.0005
3679.00,0.0005
3678.00,0.0005
3677.00,0.0005
3676.00,0.0005
3675.00,0.0005
3674.00,0.0005
3673.00,0.0005
3672.00,0.0005
3671.00,0.0005
3670.00,0.0005
3669.00,0.0004
3668.00,0.0004
3667.00,0.0004
3666.00,0.0004
3665.00,0.0003
3664.00,0.0003
3663.00,0.0003
3662.00,0.0003
3661.00,0.0003
3660.00,0.0003
3659.00,0.0003
3658.00,0.0003
3657.00,0.0003
3656.00,0.0003
3655.00,0.0004
3654.00,0.0004
3653.00,0.0004
3652.00,0.0005
3651.00,0.0005
3650.00,0.0005
3649.00,0.0005
3648.00,0.0005
3647.00,0.0005
3646.00,0.0005
3645.00,0.0004
3644.00,0.0004
3643.00,0.0003
3642.00,0.0003
3641.00,0.0003
3640.00,0.0003
3639.00,0.0003
3638.00,0.0003
3637.00,0.0003
3636.00,0.0003
3635.00,0.0003
3634.00,0.0003
3633.00,0.0003
3632.00,0.0004
3631.00,0.0004
3630.00,0.0004
3629.00,0.0004
3628.00,0.0004
3627.00,0.0004
3626.00,0.0004
3625.00,0.0004
3624.00,0.0003
3623.00,0.0003
3622.00,0.0003
3621.00,0.0003
3620.00,0.0003
3619.00,0.0003
3618.00,0.0003
3617.00,0.0003
3616.00,0.0003
3615.00,0.0003
3614.00,0.0004
3613.00,0.0004
3612.00,0.0004
3611.00,0.0004
3610.00,0.0004
3609.00,0.0004
3608.00,0.0004
3607.00,0.0004
3606.00,0.0004
3605.00,0.0004
3604.00,0.0004
3603.00,0.0004
3602.00,0.0004
3601.00,0.0003
3600.00,0.0003
3599.00,0.0003
3598.00,0.0004
3597.00,0.0004
3596.00,0.0004
3595.00,0.0004
3594.00,0.0004
3593.00,0.0004
3592.00,0.0004
3591.00,0.0004
3590.00,0.0004
3589.00,0.0004
3588.00,0.0004
3587.00,0.0004
3586.00,0.0004
3585.00,0.0004
3584.00,0.0004
3583.00,0.0004
3582.00,0.0003
3581.00,0.0003
3580.00,0.0003
3579.00,0.0003
3578.00,0.0003
3577.00,0.0003
3576.00,0.0004
3575.00,0.0004
3574.00,0.0004
3573.00,0.0004
3572.00,0.0004
3571.00,0.0004
3570.00,0.0004
3569.00,0.0004
3568.00,0.0004
3567.00,0.0004
3566.00,0.0004
3565.00,0.0004
3564.00,0.0005
3563.00,0.0004
3562.00,0.0004
3561.00,0.0004
3560.00,0.0004
3559.00,0.0004
3558.00,0.0005
3557.00,0.0005
3556.00,0.0005
3555.00,0.0005
3554.00,0.0005
3553.00,0.0005
3552.00,0.0005
3551.00,0.0005
3550.00,0.0005
3549.00,0.0005
3548.00,0.0005
3547.00,0.0006
3546.00,0.0006
3545.00,0.0006
3544.00,0.0006
3543.00,0.0006
3542.00,0.0005
3541.00,0.0005
3540.00,0.0005
3539.00,0.0006
3538.00,0.0006
3537.00,0.0006
3536.00,0.0007
3535.00,0.0007
3534.00,0.0007
3533.00,0.0007
3532.00,0.0007
3531.00,0.0007
3530.00,0.0007
3529.00,0.0007
3528.00,0.0007
3527.00,0.0007
3526.00,0.0007
3525.00,0.0008
3524.00,0.0008
3523.00,0.0008
3522.00,0.0008
3521.00,0.0008
3520.00,0.0008
3519.00,0.0008
3518.00,0.0008
3517.00,0.0008
3516.00,0.0008
3515.00,0.0008
3514.00,0.0008
3513.00,0.0009
3512.00,0.0009
3511.00,0.0009
3510.00,0.0009
3509.00,0.0010
3508.00,0.0010
3507.00,0.0010
3506.00,0.0011
3505.00,0.0011
3504.00,0.0011
3503.00,0.0010
3502.00,0.0010
3501.00,0.0010
3500.00,0.0011
3499.00,0.0011
3498.00,0.0011
3497.00,0.0011
3496.00,0.0012
3495.00,0.0012
3494.00,0.0012
3493.00,0.0013
3492.00,0.0013
3491.00,0.0013
3490.00,0.0013
3489.00,0.0013
3488.00,0.0013
3487.00,0.0014
3486.00,0.0014
3485.00,0.0014
3484.00,0.0014
3483.00,0.0014
3482.00,0.0014
3481.00,0.0014
3480.00,0.0015
3479.00,0.0015
3478.00,0.0015
3477.00,0.0015
3476.00,0.0015
3475.00,0.0016
3474.00,0.0016
3473.00,0.0016
3472.00,0.0016
3471.00,0.0016
3470.00,0.0016
3469.00,0.0016
3468.00,0.0017
3467.00,0.0017
3466.00,0.0017
3465.00,0.0017
3464.00,0.0017
3463.00,0.0017
3462.00,0.0017
3461.00,0.0017
3460.00,0.0017
3459.00,0.0017
3458.00,0.0017
3457.00,0.0017
3456.00,0.0017
3455.00,0.0017
3454.00,0.0018
3453.00,0.0018
3452.00,0.0018
3451.00,0.0018
3450.00,0.0018
3449.00,0.0019
3448.00,0.0019
3447.00,0.0018
3446.00,0.0018
3445.00,0.0019
3444.00,0.0019
3443.00,0.0019
3442.00,0.0020
3441.00,0.0020
3440.00,0.0020
3439.00,0.0020
3438.00,0.0019
3437.00,0.0019
3436.00,0.0019
3435.00,0.0019
3434.00,0.0019
3433.00,0.0020
3432.00,0.0020
3431.00,0.0020
3430.00,0.0020
3429.00,0.0020
3428.00,0.0020
3427.00,0.0020
3426.00,0.0020
3425.00,0.0020
3424.00,0.0020
3423.00,0.0021
3422.00,0.0021
3421.00,0.0021
3420.00,0.0021
3419.00,0.0021
3418.00,0.0022
3417.00,0.0022
3416.00,0.0022
3415.00,0.0023
3414.00,0.0023
3413.00,0.0023
3412.00,0.0023
3411.00,0.0023
3410.00,0.0024
3409.00,0.0024
3408.00,0.0023
3407.00,0.0023
3406.00,0.0023
3405.00,0.0023
3404.00,0.0023
3403.00,0.0024
3402.00,0.0024
3401.00,0.0024
3400.00,0.0024
3399.00,0.0024
3398.00,0.0024
3397.00,0.0024
3396.00,0.0024
3395.00,0.0024
3394.00,0.0024
3393.00,0.0024
3392.00,0.0023
3391.00,0.0023
3390.00,0.0023
3389.00,0.0023
3388.00,0.0023
3387.00,0.0023
3386.00,0.0023
3385.00,0.0023
3384.00,0.0023
3383.00,0.0023
3382.00,0.0023
3381.00,0.0023
3380.00,0.0023
3379.00,0.0023
3378.00,0.0023
3377.00,0.0023
3376.00,0.0023
3375.00,0.0022
3374.00,0.0022
3373.00,0.0022
3372.00,0.0022
3371.00,0.0022
3370.00,0.0022
3369.00,0.0022
3368.00,0.0022
3367.00,0.0022
3366.00,0.0022
3365.00,0.0022
3364.00,0.0022
3363.00,0.0022
3362.00,0.0022
3361.00,0.0022
3360.00,0.0022
3359.00,0.0023
3358.00,0.0023
3357.00,0.0023
3356.00,0.0023
3355.00,0.0023
3354.00,0.0022
3353.00,0.0023
3352.00,0.0023
3351.00,0.0023
3350.00,0.0023
3349.00,0.0023
3348.00,0.0023
3347.00,0.0023
3346.00,0.0023
3345.00,0.0023
3344.00,0.0024
3343.00,0.0024
3342.00,0.0024
3341.00,0.0024
3340.00,0.0024
3339.00,0.0024
3338.00,0.0024
3337.00,0.0024
3336.00,0.0024
3335.00,0.0024
3334.00,0.0024
3333.00,0.0024
3332.00,0.0024
3331.00,0.0024
3330.00,0.0024
3329.00,0.0024
3328.00,0.0024
3327.00,0.0024
3326.00,0.0024
3325.00,0.0024
3324.00,0.0024
3323.00,0.0024
3322.00,0.0024
3321.00,0.0024
3320.00,0.0024
3319.00,0.0024
3318.00,0.0024
3317.00,0.0024
3316.00,0.0024
3315.00,0.0024
3314.00,0.0024
3313.00,0.0024
3312.00,0.0024
3311.00,0.0024
3310.00,0.0024
3309.00,0.0024
3308.00,0.0024
3307.00,0.0024
3306.00,0.0024
3305.00,0.0025
3304.00,0.0025
3303.00,0.0025
3302.00,0.0025
3301.00,0.0025
3300.00,0.0025
3299.00,0.0025
3298.00,0.0025
3297.00,0.0024
3296.00,0.0024
3295.00,0.0024
3294.00,0.0024
3293.00,0.0024
3292.00,0.0024
3291.00,0.0024
3290.00,0.0024
3289.00,0.0024
3288.00,0.0024
3287.00,0.0024
3286.00,0.0024
3285.00,0.0024
3284.00,0.0024
3283.00,0.0023
3282.00,0.0023
3281.00,0.0023
3280.00,0.0023
3279.00,0.0024
3278.00,0.0024
3277.00,0.0024
3276.00,0.0024
3275.00,0.0024
3274.00,0.0025
3273.00,0.0025
3272.00,0.0025
3271.00,0.0025
3270.00,0.0025
3269.00,0.0025
3268.00,0.0026
3267.00,0.0026
3266.00,0.0025
3265.00,0.0025
3264.00,0.0025
3263.00,0.0025
3262.00,0.0025
3261.00,0.0025
3260.00,0.0026
3259.00,0.0026
3258.00,0.0026
3257.00,0.0026
3256.00,0.0026
3255.00,0.0027
3254.00,0.0027
3253.00,0.0027
3252.00,0.0027
3251.00,0.0027
3250.00,0.0027
3249.00,0.0026
3248.00,0.0026
3247.00,0.0026
3246.00,0.0026
3245.00,0.0025
3244.00,0.0025
3243.00,0.0025
3242.00,0.0025
3241.00,0.0025
3240.00,0.0025
3239.00,0.0025
3238.00,0.0025
3237.00,0.0025
3236.00,0.0025
3235.00,0.0024
3234.00,0.0024
3233.00,0.0024
3232.00,0.0024
3231.00,0.0024
3230.00,0.0024
3229.00,0.0024
3228.00,0.0024
3227.00,0.0024
3226.00,0.0024
3225.00,0.0024
3224.00,0.0024
3223.00,0.0023
3222.00,0.0023
3221.00,0.0023
3220.00,0.0023
3219.00,0.0023
3218.00,0.0023
3217.00,0.0023
3216.00,0.0023
3215.00,0.0023
3214.00,0.0023
3213.00,0.0023
3212.00,0.0023
3211.00,0.0023
3210.00,0.0023
3209.00,0.0023
3208.00,0.0023
3207.00,0.0023
3206.00,0.0023
3205.00,0.0023
3204.00,0.0023
3203.00,0.0023
3202.00,0.0023
3201.00,0.0023
3200.00,0.0023
3199.00,0.0022
3198.00,0.0022
3197.00,0.0022
3196.00,0.0022
3195.00,0.0022
3194.00,0.0022
3193.00,0.0021
3192.00,0.0021
3191.00,0.0021
3190.00,0.0020
3189.00,0.0020
3188.00,0.0020
3187.00,0.0019
3186.00,0.0019
3185.00,0.0019
3184.00,0.0018
3183.00,0.0018
3182.00,0.0018
3181.00,0.0018
3180.00,0.0018
3179.00,0.0018
3178.00,0.0018
3177.00,0.0018
3176.00,0.0018
3175.00,0.0018
3174.00,0.0018
3173.00,0.0018
3172.00,0.0017
3171.00,0.0017
3170.00,0.0017
3169.00,0.0017
3168.00,0.0017
3167.00,0.0017
3166.00,0.0017
3165.00,0.0017
3164.00,0.0017
3163.00,0.0017
3162.00,0.0017
3161.00,0.0018
3160.00,0.0018
3159.00,0.0018
3158.00,0.0018
3157.00,0.0018
3156.00,0.0018
3155.00,0.0018
3154.00,0.0018
3153.00,0.0019
3152.00,0.0019
3151.00,0.0019
3150.00,0.0019
3149.00,0.0018
3148.00,0.0018
3147.00,0.0018
3146.00,0.0018
3145.00,0.0018
3144.00,0.0018
3143.00,0.0018
3142.00,0.0018
3141.00,0.0018
3140.00,0.0018
3139.00,0.0017
3138.00,0.0017
3137.00,0.0017
3136.00,0.0017
3135.00,0.0017
3134.00,0.0016
3133.00,0.0016
3132.00,0.0016
3131.00,0.0016
3130.00,0.0016
3129.00,0.0015
3128.00,0.0015
3127.00,0.0015
3126.00,0.0015
3125.00,0.0015
3124.00,0.0015
3123.00,0.0014
3122.00,0.0014
3121.00,0.0014
3120.00,0.0014
3119.00,0.0014
3118.00,0.0014
3117.00,0.0013
3116.00,0.0013
3115.00,0.0014
3114.00,0.0014
3113.00,0.0014
3112.00,0.0014
3111.00,0.0014
3110.00,0.0014
3109.00,0.0013
3108.00,0.0013
3107.00,0.0013
3106.00,0.0013
3105.00,0.0013
3104.00,0.0013
3103.00,0.0013
3102.00,0.0014
3101.00,0.0014
3100.00,0.0014
3099.00,0.0014
3098.00,0.0014
3097.00,0.0014
3096.00,0.0014
3095.00,0.0015
3094.00,0.0015
3093.00,0.0015
3092.00,0.0016
3091.00,0.0016
3090.00,0.0016
3089.00,0.0016
3088.00,0.0016
3087.00,0.0015
3086.00,0.0015
3085.00,0.0015
3084.00,0.0016
3083.00,0.0016
3082.00,0.0016
3081.00,0.0016
3080.00,0.0017
3079.00,0.0017
3078.00,0.0017
3077.00,0.0018
3076.00,0.0019
3075.00,0.0020
3074.00,0.0021
3073.00,0.0022
3072.00,0.0024
3071.00,0.0026
3070.00,0.0027
3069.00,0.0028
3068.00,0.0028
3067.00,0.0028
3066.00,0.0027
3065.00,0.0026
3064.00,0.0026
3063.00,0.0026
3062.00,0.0026
3061.00,0.0026
3060.00,0.0026
3059.00,0.0027
3058.00,0.0028
3057.00,0.0029
3056.00,0.0030
3055.00,0.0031
3054.00,0.0031
3053.00,0.0031
3052.00,0.0031
3051.00,0.0030
3050.00,0.0029
3049.00,0.0028
3048.00,0.0027
3047.00,0.0026
3046.00,0.0024
3045.00,0.0023
3044.00,0.0023
3043.00,0.0022
3042.00,0.0021
3041.00,0.0021
3040.00,0.0020
3039.00,0.0020
3038.00,0.0020
3037.00,0.0020
3036.00,0.0020
3035.00,0.0020
3034.00,0.0019
3033.00,0.0019
3032.00,0.0019
3031.00,0.0019
3030.00,0.0019
3029.00,0.0019
3028.00,0.0018
3027.00,0.0018
3026.00,0.0018
3025.00,0.0018
3024.00,0.0018
3023.00,0.0018
3022.00,0.0018
3021.00,0.0019
3020.00,0.0019
3019.00,0.0019
3018.00,0.0019
3017.00,0.0019
3016.00,0.0019
3015.00,0.0019
3014.00,0.0019
3013.00,0.0019
3012.00,0.0019
3011.00,0.0019
3010.00,0.0020
3009.00,0.0020
3008.00,0.0020
3007.00,0.0020
3006.00,0.0020
3005.00,0.0020
3004.00,0.0020
3003.00,0.0020
3002.00,0.0020
3001.00,0.0020
3000.00,0.0020
2999.00,0.0021
2998.00,0.0021
2997.00,0.0021
2996.00,0.0022
2995.00,0.0022
2994.00,0.0023
2993.00,0.0024
2992.00,0.0024
2991.00,0.0025
2990.00,0.0026
2989.00,0.0027
2988.00,0.0028
2987.00,0.0028
2986.00,0.0029
2985.00,0.0029
2984.00,0.0029
2983.00,0.0029
2982.00,0.0030
2981.00,0.0031
2980.00,0.0033
2979.00,0.0035
2978.00,0.0038
2977.00,0.0041
2976.00,0.0044
2975.00,0.0046
2974.00,0.0048
2973.00,0.0050
2972.00,0.0053
2971.00,0.0056
2970.00,0.0060
2969.00,0.0064
2968.00,0.0068
2967.00,0.0073
2966.00,0.0078
2965.00,0.0084
2964.00,0.0089
2963.00,0.0095
2962.00,0.0102
2961.00,0.0108
2960.00,0.0116
2959.00,0.0124
2958.00,0.0133
2957.00,0.0143
2956.00,0.0154
2955.00,0.0165
2954.00,0.0178
2953.00,0.0192
2952.00,0.0207
2951.00,0.0224
2950.00,0.0242
2949.00,0.0262
2948.00,0.0285
2947.00,0.0310
2946.00,0.0338
2945.00,0.0370
2944.00,0.0406
2943.00,0.0447
2942.00,0.0493
2941.00,0.0547
2940.00,0.0608
2939.00,0.0680
2938.00,0.0762
2937.00,0.0856
2936.00,0.0962
2935.00,0.1077
2934.00,0.1198
2933.00,0.1320
2932.00,0.1436
2931.00,0.1543
2930.00,0.1641
2929.00,0.1731
2928.00,0.1822
2927.00,0.1920
2926.00,0.2035
2925.00,0.2170
2924.00,0.2330
2923.00,0.2516
2922.00,0.2726
2921.00,0.2954
2920.00,0.3189
2919.00,0.3414
2918.00,0.3607
2917.00,0.3744
2916.00,0.3810
2915.00,0.3799
2914.00,0.3720
2913.00,0.3590
2912.00,0.3430
2911.00,0.3258
2910.00,0.3089
2909.00,0.2932
2908.00,0.2793
2907.00,0.2674
2906.00,0.2575
2905.00,0.2493
2904.00,0.2423
2903.00,0.2358
2902.00,0.2293
2901.00,0.2221
2900.00,0.2139
2899.00,0.2047
2898.00,0.1949
2897.00,0.1851
2896.00,0.1756
2895.00,0.1667
2894.00,0.1581
2893.00,0.1498
2892.00,0.1415
2891.00,0.1334
2890.00,0.1257
2889.00,0.1187
2888.00,0.1127
2887.00,0.1077
2886.00,0.1034
2885.00,0.0995
2884.00,0.0955
2883.00,0.0911
2882.00,0.0863
2881.00,0.0812
2880.00,0.0760
2879.00,0.0711
2878.00,0.0665
2877.00,0.0625
2876.00,0.0590
2875.00,0.0560
2874.00,0.0535
2873.00,0.0515
2872.00,0.0499
2871.00,0.0487
2870.00,0.0481
2869.00,0.0480
2868.00,0.0485
2867.00,0.0496
2866.00,0.0514
2865.00,0.0539
2864.00,0.0575
2863.00,0.0622
2862.00,0.0684
2861.00,0.0764
2860.00,0.0867
2859.00,0.0997
2858.00,0.1158
2857.00,0.1351
2856.00,0.1571
2855.00,0.1809
2854.00,0.2047
2853.00,0.2265
2852.00,0.2450
2851.00,0.2594
2850.00,0.2695
2849.00,0.2756
2848.00,0.2775
2847.00,0.2750
2846.00,0.2679
2845.00,0.2566
2844.00,0.2416
2843.00,0.2241
2842.00,0.2051
2841.00,0.1856
2840.00,0.1663
2839.00,0.1479
2838.00,0.1306
2837.00,0.1147
2836.00,0.1004
2835.00,0.0877
2834.00,0.0765
2833.00,0.0668
2832.00,0.0585
2831.00,0.0514
2830.00,0.0453
2829.00,0.0402
2828.00,0.0358
2827.00,0.0321
2826.00,0.0290
2825.00,0.0264
2824.00,0.0242
2823.00,0.0224
2822.00,0.0209
2821.00,0.0196
2820.00,0.0185
2819.00,0.0176
2818.00,0.0169
2817.00,0.0163
2816.00,0.0158
2815.00,0.0155
2814.00,0.0153
2813.00,0.0153
2812.00,0.0152
2811.00,0.0151
2810.00,0.0150
2809.00,0.0146
2808.00,0.0142
2807.00,0.0138
2806.00,0.0133
2805.00,0.0128
2804.00,0.0123
2803.00,0.0119
2802.00,0.0115
2801.00,0.0112
2800.00,0.0110
2799.00,0.0110
2798.00,0.0110
2797.00,0.0112
2796.00,0.0114
2795.00,0.0116
2794.00,0.0118
2793.00,0.0118
2792.00,0.0117
2791.00,0.0115
2790.00,0.0111
2789.00,0.0107
2788.00,0.0102
2787.00,0.0097
2786.00,0.0092
2785.00,0.0087
2784.00,0.0082
2783.00,0.0078
2782.00,0.0075
2781.00,0.0072
2780.00,0.0069
2779.00,0.0067
2778.00,0.0065
2777.00,0.0064
2776.00,0.0062
2775.00,0.0061
2774.00,0.0059
2773.00,0.0058
2772.00,0.0056
2771.00,0.0055
2770.00,0.0053
2769.00,0.0051
2768.00,0.0049
2767.00,0.0047
2766.00,0.0046
2765.00,0.0044
2764.00,0.0042
2763.00,0.0041
2762.00,0.0040
2761.00,0.0039
2760.00,0.0038
2759.00,0.0037
2758.00,0.0036
2757.00,0.0035
2756.00,0.0035
2755.00,0.0035
2754.00,0.0035
2753.00,0.0035
2752.00,0.0035
2751.00,0.0035
2750.00,0.0035
2749.00,0.0035
2748.00,0.0034
2747.00,0.0033
2746.00,0.0032
2745.00,0.0031
2744.00,0.0030
2743.00,0.0029
2742.00,0.0029
2741.00,0.0028
2740.00,0.0028
2739.00,0.0027
2738.00,0.0027
2737.00,0.0027
2736.00,0.0026
2735.00,0.0026
2734.00,0.0026
2733.00,0.0026
2732.00,0.0026
2731.00,0.0026
2730.00,0.0026
2729.00,0.0026
2728.00,0.0026
2727.00,0.0026
2726.00,0.0027
2725.00,0.0027
2724.00,0.0028
2723.00,0.0029
2722.00,0.0030
2721.00,0.0031
2720.00,0.0031
2719.00,0.0032
2718.00,0.0033
2717.00,0.0033
2716.00,0.0034
2715.00,0.0034
2714.00,0.0035
2713.00,0.0037
2712.00,0.0039
2711.00,0.0041
2710.00,0.0044
2709.00,0.0046
2708.00,0.0048
2707.00,0.0049
2706.00,0.0049
2705.00,0.0048
2704.00,0.0046
2703.00,0.0044
2702.00,0.0043
2701.00,0.0042
2700.00,0.0043
2699.00,0.0044
2698.00,0.0047
2697.00,0.0050
2696.00,0.0053
2695.00,0.0056
2694.00,0.0057
2693.00,0.0057
2692.00,0.0056
2691.00,0.0053
2690.00,0.0049
2689.00,0.0047
2688.00,0.0044
2687.00,0.0043
2686.00,0.0043
2685.00,0.0043
2684.00,0.0044
2683.00,0.0045
2682.00,0.0046
2681.00,0.0047
2680.00,0.0047
2679.00,0.0048
2678.00,0.0048
2677.00,0.0048
2676.00,0.0048
2675.00,0.0048
2674.00,0.0048
2673.00,0.0049
2672.00,0.0051
2671.00,0.0055
2670.00,0.0062
2669.00,0.0070
2668.00,0.0080
2667.00,0.0090
2666.00,0.0099
2665.00,0.0105
2664.00,0.0110
2663.00,0.0115
2662.00,0.0119
2661.00,0.0123
2660.00,0.0124
2659.00,0.0121
2658.00,0.0115
2657.00,0.0106
2656.00,0.0095
2655.00,0.0084
2654.00,0.0075
2653.00,0.0066
2652.00,0.0060
2651.00,0.0054
2650.00,0.0050
2649.00,0.0046
2648.00,0.0043
2647.00,0.0040
2646.00,0.0038
2645.00,0.0037
2644.00,0.0036
2643.00,0.0036
2642.00,0.0036
2641.00,0.0037
2640.00,0.0038
2639.00,0.0040
2638.00,0.0042
2637.00,0.0045
2636.00,0.0048
2635.00,0.0052
2634.00,0.0056
2633.00,0.0059
2632.00,0.0060
2631.00,0.0058
2630.00,0.0054
2629.00,0.0049
2628.00,0.0044
2627.00,0.0039
2626.00,0.0036
2625.00,0.0034
2624.00,0.0032
2623.00,0.0032
2622.00,0.0032
2621.00,0.0033
2620.00,0.0033
2619.00,0.0034
2618.00,0.0035
2617.00,0.0035
2616.00,0.0035
2615.00,0.0034
2614.00,0.0034
2613.00,0.0033
2612.00,0.0032
2611.00,0.0031
2610.00,0.0030
2609.00,0.0030
2608.00,0.0030
2607.00,0.0030
2606.00,0.0030
2605.00,0.0031
2604.00,0.0032
2603.00,0.0033
2602.00,0.0034
2601.00,0.0035
2600.00,0.0035
2599.00,0.0035
2598.00,0.0034
2597.00,0.0033
2596.00,0.0032
2595.00,0.0031
2594.00,0.0030
2593.00,0.0029
2592.00,0.0029
2591.00,0.0029
2590.00,0.0029
2589.00,0.0029
2588.00,0.0030
2587.00,0.0030
2586.00,0.0031
2585.00,0.0032
2584.00,0.0033
2583.00,0.0034
2582.00,0.0035
2581.00,0.0036
2580.00,0.0036
2579.00,0.0036
2578.00,0.0035
2577.00,0.0033
2576.00,0.0031
2575.00,0.0028
2574.00,0.0026
2573.00,0.0024
2572.00,0.0022
2571.00,0.0021
2570.00,0.0020
2569.00,0.0019
2568.00,0.0018
2567.00,0.0017
2566.00,0.0017
2565.00,0.0016
2564.00,0.0016
2563.00,0.0015
2562.00,0.0015
2561.00,0.0015
2560.00,0.0015
2559.00,0.0015
2558.00,0.0015
2557.00,0.0015
2556.00,0.0015
2555.00,0.0015
2554.00,0.0015
2553.00,0.0015
2552.00,0.0015
2551.00,0.0015
2550.00,0.0015
2549.00,0.0015
2548.00,0.0015
2547.00,0.0014
2546.00,0.0013
2545.00,0.0013
2544.00,0.0012
2543.00,0.0012
2542.00,0.0011
2541.00,0.0011
2540.00,0.0011
2539.00,0.0012
2538.00,0.0012
2537.00,0.0012
2536.00,0.0012
2535.00,0.0012
2534.00,0.0012
2533.00,0.0012
2532.00,0.0012
2531.00,0.0012
2530.00,0.0012
2529.00,0.0012
2528.00,0.0012
2527.00,0.0012
2526.00,0.0011
2525.00,0.0010
2524.00,0.0010
2523.00,0.0009
2522.00,0.0009
2521.00,0.0009
2520.00,0.0009
2519.00,0.0009
2518.00,0.0009
2517.00,0.0008
2516.00,0.0009
2515.00,0.0009
2514.00,0.0009
2513.00,0.0010
2512.00,0.0010
2511.00,0.0010
2510.00,0.0010
2509.00,0.0010
2508.00,0.0011
2507.00,0.0012
2506.00,0.0012
2505.00,0.0013
2504.00,0.0013
2503.00,0.0014
2502.00,0.0014
2501.00,0.0015
2500.00,0.0016
2499.00,0.0016
2498.00,0.0017
2497.00,0.0017
2496.00,0.0016
2495.00,0.0016
2494.00,0.0015
2493.00,0.0014
2492.00,0.0013
2491.00,0.0012
2490.00,0.0012
2489.00,0.0012
2488.00,0.0011
2487.00,0.0011
2486.00,0.0011
2485.00,0.0010
2484.00,0.0010
2483.00,0.0010
2482.00,0.0010
2481.00,0.0010
2480.00,0.0010
2479.00,0.0010
2478.00,0.0010
2477.00,0.0010
2476.00,0.0011
2475.00,0.0012
2474.00,0.0012
2473.00,0.0013
2472.00,0.0013
2471.00,0.0013
2470.00,0.0013
2469.00,0.0012
2468.00,0.0011
2467.00,0.0010
2466.00,0.0009
2465.00,0.0008
2464.00,0.0008
2463.00,0.0007
2462.00,0.0007
2461.00,0.0007
2460.00,0.0007
2459.00,0.0007
2458.00,0.0007
2457.00,0.0007
2456.00,0.0007
2455.00,0.0006
2454.00,0.0006
2453.00,0.0006
2452.00,0.0005
2451.00,0.0006
2450.00,0.0006
2449.00,0.0006
2448.00,0.0006
2447.00,0.0006
2446.00,0.0006
2445.00,0.0006
2444.00,0.0006
2443.00,0.0006
2442.00,0.0007
2441.00,0.0007
2440.00,0.0008
2439.00,0.0008
2438.00,0.0009
2437.00,0.0009
2436.00,0.0009
2435.00,0.0009
2434.00,0.0009
2433.00,0.0010
2432.00,0.0010
2431.00,0.0010
2430.00,0.0009
2429.00,0.0009
2428.00,0.0009
2427.00,0.0008
2426.00,0.0008
2425.00,0.0008
2424.00,0.0007
2423.00,0.0007
2422.00,0.0008
2421.00,0.0008
2420.00,0.0009
2419.00,0.0009
2418.00,0.0010
2417.00,0.0010
2416.00,0.0010
2415.00,0.0010
2414.00,0.0011
2413.00,0.0011
2412.00,0.0011
2411.00,0.0010
2410.00,0.0009
2409.00,0.0009
2408.00,0.0008
2407.00,0.0008
2406.00,0.0007
2405.00,0.0007
2404.00,0.0007
2403.00,0.0006
2402.00,0.0006
2401.00,0.0005
2400.00,0.0005
2399.00,0.0005
2398.00,0.0006
2397.00,0.0006
2396.00,0.0007
2395.00,0.0008
2394.00,0.0009
2393.00,0.0010
2392.00,0.0011
2391.00,0.0013
2390.00,0.0014
2389.00,0.0015
2388.00,0.0016
2387.00,0.0016
2386.00,0.0015
2385.00,0.0014
2384.00,0.0013
2383.00,0.0011
2382.00,0.0010
2381.00,0.0009
2380.00,0.0008
2379.00,0.0008
2378.00,0.0008
2377.00,0.0008
2376.00,0.0009
2375.00,0.0009
2374.00,0.0010
2373.00,0.0010
2372.00,0.0010
2371.00,0.0010
2370.00,0.0009
2369.00,0.0009
2368.00,0.0009
2367.00,0.0009
2366.00,0.0008
2365.00,0.0009
2364.00,0.0009
2363.00,0.0009
2362.00,0.0010
2361.00,0.0010
2360.00,0.0010
2359.00,0.0010
2358.00,0.0009
2357.00,0.0009
2356.00,0.0009
2355.00,0.0009
2354.00,0.0010
2353.00,0.0010
2352.00,0.0011
2351.00,0.0011
2350.00,0.0011
2349.00,0.0011
2348.00,0.0011
2347.00,0.0011
2346.00,0.0012
2345.00,0.0012
2344.00,0.0012
2343.00,0.0012
2342.00,0.0012
2341.00,0.0012
2340.00,0.0013
2339.00,0.0013
2338.00,0.0013
2337.00,0.0013
2336.00,0.0014
2335.00,0.0014
2334.00,0.0015
2333.00,0.0015
2332.00,0.0015
2331.00,0.0015
2330.00,0.0015
2329.00,0.0016
2328.00,0.0017
2327.00,0.0020
2326.00,0.0023
2325.00,0.0024
2324.00,0.0025
2323.00,0.0024
2322.00,0.0022
2321.00,0.0021
2320.00,0.0020
2319.00,0.0019
2318.00,0.0019
2317.00,0.0018
2316.00,0.0018
2315.00,0.0018
2314.00,0.0018
2313.00,0.0017
2312.00,0.0017
2311.00,0.0017
2310.00,0.0017
2309.00,0.0017
2308.00,0.0017
2307.00,0.0017
2306.00,0.0017
2305.00,0.0017
2304.00,0.0017
2303.00,0.0016
2302.00,0.0016
2301.00,0.0015
2300.00,0.0015
2299.00,0.0014
2298.00,0.0014
2297.00,0.0014
2296.00,0.0014
2295.00,0.0014
2294.00,0.0015
2293.00,0.0015
2292.00,0.0016
2291.00,0.0017
2290.00,0.0018
2289.00,0.0018
2288.00,0.0019
2287.00,0.0020
2286.00,0.0020
2285.00,0.0020
2284.00,0.0020
2283.00,0.0019
2282.00,0.0018
2281.00,0.0018
2280.00,0.0017
2279.00,0.0016
2278.00,0.0015
2277.00,0.0013
2276.00,0.0013
2275.00,0.0012
2274.00,0.0012
2273.00,0.0012
2272.00,0.0012
2271.00,0.0012
2270.00,0.0012
2269.00,0.0011
2268.00,0.0010
2267.00,0.0009
2266.00,0.0008
2265.00,0.0008
2264.00,0.0007
2263.00,0.0007
2262.00,0.0008
2261.00,0.0008
2260.00,0.0009
2259.00,0.0009
2258.00,0.0008
2257.00,0.0007
2256.00,0.0007
2255.00,0.0006
2254.00,0.0006
2253.00,0.0006
2252.00,0.0006
2251.00,0.0007
2250.00,0.0007
2249.00,0.0007
2248.00,0.0007
2247.00,0.0006
2246.00,0.0006
2245.00,0.0006
2244.00,0.0006
2243.00,0.0007
2242.00,0.0007
2241.00,0.0007
2240.00,0.0007
2239.00,0.0007
2238.00,0.0007
2237.00,0.0007
2236.00,0.0006
2235.00,0.0006
2234.00,0.0006
2233.00,0.0006
2232.00,0.0005
2231.00,0.0005
2230.00,0.0005
2229.00,0.0004
2228.00,0.0004
2227.00,0.0004
2226.00,0.0004
2225.00,0.0005
2224.00,0.0005
2223.00,0.0005
2222.00,0.0006
2221.00,0.0006
2220.00,0.0007
2219.00,0.0007
2218.00,0.0008
2217.00,0.0008
2216.00,0.0008
2215.00,0.0009
2214.00,0.0010
2213.00,0.0011
2212.00,0.0011
2211.00,0.0011
2210.00,0.0010
2209.00,0.0009
2208.00,0.0009
2207.00,0.0008
2206.00,0.0009
2205.00,0.0010
2204.00,0.0011
2203.00,0.0011
2202.00,0.0012
2201.00,0.0012
2200.00,0.0011
2199.00,0.0010
2198.00,0.0009
2197.00,0.0008
2196.00,0.0006
2195.00,0.0006
2194.00,0.0006
2193.00,0.0007
2192.00,0.0008
2191.00,0.0008
2190.00,0.0009
2189.00,0.0009
2188.00,0.0010
2187.00,0.0011
2186.00,0.0013
2185.00,0.0012
2184.00,0.0011
2183.00,0.0009
2182.00,0.0008
2181.00,0.0008
2180.00,0.0009
2179.00,0.0011
2178.00,0.0011
2177.00,0.0010
2176.00,0.0009
2175.00,0.0008
2174.00,0.0008
2173.00,0.0009
2172.00,0.0009
2171.00,0.0009
2170.00,0.0010
2169.00,0.0011
2168.00,0.0012
2167.00,0.0013
2166.00,0.0013
2165.00,0.0014
2164.00,0.0014
2163.00,0.0015
2162.00,0.0012
2161.00,0.0005
2160.00,-0.0004
2159.00,-0.0014
2158.00,-0.0019
2157.00,-0.0021
2156.00,-0.0020
2155.00,-0.0018
2154.00,-0.0017
2153.00,-0.0015
2152.00,-0.0014
2151.00,-0.0013
2150.00,-0.0011
2149.00,-0.0010
2148.00,-0.0009
2147.00,-0.0009
2146.00,-0.0009
2145.00,-0.0010
2144.00,-0.0010
2143.00,-0.0010
2142.00,-0.0011
2141.00,-0.0010
2140.00,-0.0010
2139.00,-0.0010
2138.00,-0.0010
2137.00,-0.0012
2136.00,-0.0014
2135.00,-0.0015
2134.00,-0.0015
2133.00,-0.0014
2132.00,-0.0013
2131.00,-0.0011
2130.00,-0.0009
2129.00,-0.0007
2128.00,-0.0005
2127.00,-0.0004
2126.00,-0.0003
2125.00,-0.0003
2124.00,-0.0003
2123.00,-0.0003
2122.00,-0.0003
2121.00,-0.0003
2120.00,-0.0002
2119.00,-0.0001
2118.00,-0.0000
2117.00,0.0000
2116.00,0.0000
2115.00,0.0000
2114.00,-0.0000
2113.00,-0.0001
2112.00,-0.0001
2111.00,-0.0001
2110.00,-0.0000
2109.00,0.0000
2108.00,0.0001
2107.00,0.0001
2106.00,-0.0000
2105.00,-0.0001
2104.00,-0.0002
2103.00,-0.0002
2102.00,-0.0001
2101.00,-0.0001
2100.00,-0.0001
2099.00,-0.0001
2098.00,-0.0002
2097.00,-0.0002
2096.00,-0.0002
2095.00,-0.0002
2094.00,-0.0002
2093.00,-0.0001
2092.00,0.0001
2091.00,0.0002
2090.00,0.0002
2089.00,0.0003
2088.00,0.0003
2087.00,0.0003
2086.00,0.0004
2085.00,0.0004
2084.00,0.0005
2083.00,0.0004
2082.00,0.0004
2081.00,0.0004
2080.00,0.0004
2079.00,0.0004
2078.00,0.0004
2077.00,0.0004
2076.00,0.0003
2075.00,0.0001
2074.00,0.0000
2073.00,-0.0000
2072.00,0.0001
2071.00,0.0001
2070.00,0.0001
2069.00,0.0001
2068.00,0.0001
2067.00,0.0001
2066.00,0.0001
2065.00,0.0001
2064.00,-0.0000
2063.00,-0.0001
2062.00,-0.0002
2061.00,-0.0001
2060.00,-0.0000
2059.00,0.0001
2058.00,0.0001
2057.00,0.0002
2056.00,0.0002
2055.00,0.0003
2054.00,0.0005
2053.00,0.0009
2052.00,0.0013
2051.00,0.0013
2050.00,0.0010
2049.00,0.0006
2048.00,0.0002
2047.00,0.0001
2046.00,0.0002
2045.00,0.0003
2044.00,0.0004
2043.00,0.0003
2042.00,0.0001
2041.00,0.0000
2040.00,0.0001
2039.00,0.0001
2038.00,0.0002
2037.00,0.0002
2036.00,0.0001
2035.00,-0.0000
2034.00,-0.0003
2033.00,-0.0004
2032.00,-0.0004
2031.00,-0.0003
2030.00,-0.0003
2029.00,-0.0005
2028.00,-0.0006
2027.00,-0.0007
2026.00,-0.0008
2025.00,-0.0008
2024.00,-0.0007
2023.00,-0.0006
2022.00,-0.0004
2021.00,-0.0002
2020.00,-0.0001
2019.00,-0.0001
2018.00,-0.0002
2017.00,-0.0002
2016.00,-0.0002
2015.00,-0.0002
2014.00,-0.0003
2013.00,-0.0003
2012.00,-0.0004
2011.00,-0.0005
2010.00,-0.0006
2009.00,-0.0007
2008.00,-0.0008
2007.00,-0.0008
2006.00,-0.0008
2005.00,-0.0008
2004.00,-0.0008
2003.00,-0.0006
2002.00,-0.0004
2001.00,-0.0003
2000.00,-0.0001
1999.00,-0.0000
1998.00,-0.0000
1997.00,-0.0001
1996.00,-0.0001
1995.00,-0.0002
1994.00,-0.0002
1993.00,-0.0002
1992.00,-0.0001
1991.00,0.0001
1990.00,0.0003
1989.00,0.0006
1988.00,0.0008
1987.00,0.0008
1986.00,0.0008
1985.00,0.0007
1984.00,0.0006
1983.00,0.0005
1982.00,0.0005
1981.00,0.0006
1980.00,0.0006
1979.00,0.0004
1978.00,0.0001
1977.00,-0.0002
1976.00,-0.0005
1975.00,-0.0008
1974.00,-0.0011
1973.00,-0.0012
1972.00,-0.0011
1971.00,-0.0010
1970.00,-0.0009
1969.00,-0.0008
1968.00,-0.0007
1967.00,-0.0008
1966.00,-0.0008
1965.00,-0.0010
1964.00,-0.0011
1963.00,-0.0012
1962.00,-0.0013
1961.00,-0.0014
1960.00,-0.0015
1959.00,-0.0015
1958.00,-0.0015
1957.00,-0.0013
1956.00,-0.0011
1955.00,-0.0009
1954.00,-0.0008
1953.00,-0.0007
1952.00,-0.0007
1951.00,-0.0007
1950.00,-0.0008
1949.00,-0.0009
1948.00,-0.0009
1947.00,-0.0009
1946.00,-0.0010
1945.00,-0.0010
1944.00,-0.0010
1943.00,-0.0010
1942.00,-0.0009
1941.00,-0.0007
1940.00,-0.0006
1939.00,-0.0005
1938.00,-0.0005
1937.00,-0.0004
1936.00,-0.0003
1935.00,-0.0002
1934.00,-0.0002
1933.00,-0.0002
1932.00,-0.0002
1931.00,-0.0003
1930.00,-0.0003
1929.00,-0.0003
1928.00,-0.0004
1927.00,-0.0004
1926.00,-0.0005
1925.00,-0.0005
1924.00,-0.0005
1923.00,-0.0005
1922.00,-0.0005
1921.00,-0.0004
1920.00,-0.0004
1919.00,-0.0004
1918.00,-0.0003
1917.00,-0.0002
1916.00,-0.0002
1915.00,-0.0001
1914.00,-0.0001
1913.00,-0.0001
1912.00,-0.0001
1911.00,-0.0000
1910.00,0.0000
1909.00,0.0001
1908.00,0.0001
1907.00,0.0001
1906.00,0.0000
1905.00,-0.0000
1904.00,-0.0001
1903.00,-0.0001
1902.00,-0.0001
1901.00,-0.0001
1900.00,-0.0001
1899.00,-0.0001
1898.00,-0.0001
1897.00,-0.0001
1896.00,-0.0001
1895.00,-0.0000
1894.00,-0.0000
1893.00,0.0000
1892.00,0.0000
1891.00,0.0000
1890.00,-0.0000
1889.00,-0.0000
1888.00,-0.0000
1887.00,-0.0000
1886.00,-0.0000
1885.00,-0.0000
1884.00,-0.0000
1883.00,-0.0000
1882.00,-0.0001
1881.00,-0.0001
1880.00,-0.0002
1879.00,-0.0001
1878.00,-0.0001
1877.00,-0.0000
1876.00,0.0000
1875.00,0.0000
1874.00,0.0000
1873.00,0.0000
1872.00,0.0001
1871.00,0.0001
1870.00,0.0001
1869.00,0.0000
1868.00,-0.0000
1867.00,-0.0000
1866.00,0.0000
1865.00,0.0001
1864.00,0.0001
1863.00,0.0001
1862.00,0.0002
1861.00,0.0002
1860.00,0.0002
1859.00,0.0002
1858.00,0.0001
1857.00,0.0001
1856.00,0.0001
1855.00,0.0000
1854.00,0.0000
1853.00,-0.0000
1852.00,-0.0001
1851.00,-0.0001
1850.00,-0.0002
1849.00,-0.0002
1848.00,-0.0002
1847.00,-0.0002
1846.00,-0.0002
1845.00,-0.0001
1844.00,-0.0001
1843.00,0.0000
1842.00,0.0001
1841.00,0.0001
1840.00,0.0001
1839.00,0.0002
1838.00,0.0002
1837.00,0.0002
1836.00,0.0002
1835.00,0.0002
1834.00,0.0002
1833.00,0.0003
1832.00,0.0003
1831.00,0.0003
1830.00,0.0003
1829.00,0.0003
1828.00,0.0003
1827.00,0.0003
1826.00,0.0003
1825.00,0.0003
1824.00,0.0003
1823.00,0.0003
1822.00,0.0003
1821.00,0.0003
1820.00,0.0003
1819.00,0.0002
1818.00,0.0001
1817.00,0.0001
1816.00,0.0002
1815.00,0.0003
1814.00,0.0004
1813.00,0.0005
1812.00,0.0005
1811.00,0.0006
1810.00,0.0006
1809.00,0.0007
1808.00,0.0007
1807.00,0.0007
1806.00,0.0007
1805.00,0.0008
1804.00,0.0008
1803.00,0.0008
1802.00,0.0008
1801.00,0.0008
1800.00,0.0009
1799.00,0.0009
1798.00,0.0010
1797.00,0.0010
1796.00,0.0010
1795.00,0.0010
1794.00,0.0009
1793.00,0.0009
1792.00,0.0009
1791.00,0.0008
1790.00,0.0008
1789.00,0.0008
1788.00,0.0007
1787.00,0.0007
1786.00,0.0007
1785.00,0.0006
1784.00,0.0006
1783.00,0.0006
1782.00,0.0005
1781.00,0.0005
1780.00,0.0005
1779.00,0.0004
1778.00,0.0004
1777.00,0.0004
1776.00,0.0004
1775.00,0.0004
1774.00,0.0004
1773.00,0.0005
1772.00,0.0005
1771.00,0.0006
1770.00,0.0006
1769.00,0.0006
1768.00,0.0006
1767.00,0.0006
1766.00,0.0006
1765.00,0.0006
1764.00,0.0006
1763.00,0.0006
1762.00,0.0006
1761.00,0.0006
1760.00,0.0006
1759.00,0.0006
1758.00,0.0006
1757.00,0.0006
1756.00,0.0006
1755.00,0.0007
1754.00,0.0007
1753.00,0.0007
1752.00,0.0007
1751.00,0.0007
1750.00,0.0007
1749.00,0.0007
1748.00,0.0007
1747.00,0.0007
1746.00,0.0007
1745.00,0.0007
1744.00,0.0007
1743.00,0.0007
1742.00,0.0008
1741.00,0.0008
1740.00,0.0008
1739.00,0.0008
1738.00,0.0007
1737.00,0.0007
1736.00,0.0007
1735.00,0.0006
1734.00,0.0006
1733.00,0.0005
1732.00,0.0005
1731.00,0.0005
1730.00,0.0004
1729.00,0.0004
1728.00,0.0005
1727.00,0.0005
1726.00,0.0006
1725.00,0.0006
1724.00,0.0007
1723.00,0.0007
1722.00,0.0008
1721.00,0.0008
1720.00,0.0008
1719.00,0.0008
1718.00,0.0008
1717.00,0.0008
1716.00,0.0009
1715.00,0.0009
1714.00,0.0009
1713.00,0.0009
1712.00,0.0009
1711.00,0.0009
1710.00,0.0009
1709.00,0.0009
1708.00,0.0009
1707.00,0.0009
1706.00,0.0009
1705.00,0.0009
1704.00,0.0009
1703.00,0.0009
1702.00,0.0009
1701.00,0.0009
1700.00,0.0009
1699.00,0.0009
1698.00,0.0008
1697.00,0.0008
1696.00,0.0009
1695.00,0.0009
1694.00,0.0009
1693.00,0.0009
1692.00,0.0009
1691.00,0.0009
1690.00,0.0009
1689.00,0.0009
1688.00,0.0010
1687.00,0.0010
1686.00,0.0010
1685.00,0.0010
1684.00,0.0010
1683.00,0.0010
1682.00,0.0010
1681.00,0.0010
1680.00,0.0010
1679.00,0.0010
1678.00,0.0011
1677.00,0.0011
1676.00,0.0011
1675.00,0.0011
1674.00,0.0012
1673.00,0.0012
1672.00,0.0012
1671.00,0.0013
1670.00,0.0013
1669.00,0.0013
1668.00,0.0013
1667.00,0.0013
1666.00,0.0013
1665.00,0.0012
1664.00,0.0012
1663.00,0.0012
1662.00,0.0012
1661.00,0.0013
1660.00,0.0013
1659.00,0.0013
1658.00,0.0014
1657.00,0.0014
1656.00,0.0014
1655.00,0.0014
1654.00,0.0014
1653.00,0.0013
1652.00,0.0012
1651.00,0.0012
1650.00,0.0012
1649.00,0.0011
1648.00,0.0011
1647.00,0.0011
1646.00,0.0011
1645.00,0.0012
1644.00,0.0012
1643.00,0.0012
1642.00,0.0012
1641.00,0.0012
1640.00,0.0012
1639.00,0.0012
1638.00,0.0012
1637.00,0.0012
1636.00,0.0012
1635.00,0.0012
1634.00,0.0013
1633.00,0.0013
1632.00,0.0013
1631.00,0.0013
1630.00,0.0013
1629.00,0.0013
1628.00,0.0013
1627.00,0.0013
1626.00,0.0013
1625.00,0.0013
1624.00,0.0013
1623.00,0.0013
1622.00,0.0012
1621.00,0.0012
1620.00,0.0012
1619.00,0.0012
1618.00,0.0012
1617.00,0.0012
1616.00,0.0013
1615.00,0.0013
1614.00,0.0012
1613.00,0.0012
1612.00,0.0012
1611.00,0.0012
1610.00,0.0012
1609.00,0.0012
1608.00,0.0012
1607.00,0.0012
1606.00,0.0013
1605.00,0.0013
1604.00,0.0013
1603.00,0.0014
1602.00,0.0015
1601.00,0.0017
1600.00,0.0020
1599.00,0.0023
1598.00,0.0024
1597.00,0.0024
1596.00,0.0023
1595.00,0.0021
1594.00,0.0019
1593.00,0.0018
1592.00,0.0017
1591.00,0.0017
1590.00,0.0017
1589.00,0.0017
1588.00,0.0017
1587.00,0.0017
1586.00,0.0017
1585.00,0.0017
1584.00,0.0017
1583.00,0.0017
1582.00,0.0017
1581.00,0.0017
1580.00,0.0017
1579.00,0.0017
1578.00,0.0017
1577.00,0.0016
1576.00,0.0016
1575.00,0.0016
1574.00,0.0016
1573.00,0.0015
1572.00,0.0015
1571.00,0.0015
1570.00,0.0014
1569.00,0.0014
1568.00,0.0014
1567.00,0.0013
1566.00,0.0013
1565.00,0.0013
1564.00,0.0013
1563.00,0.0012
1562.00,0.0012
1561.00,0.0012
1560.00,0.0012
1559.00,0.0013
1558.00,0.0013
1557.00,0.0014
1556.00,0.0015
1555.00,0.0015
1554.00,0.0015
1553.00,0.0016
1552.00,0.0016
1551.00,0.0016
1550.00,0.0016
1549.00,0.0016
1548.00,0.0016
1547.00,0.0016
1546.00,0.0017
1545.00,0.0017
1544.00,0.0017
1543.00,0.0018
1542.00,0.0018
1541.00,0.0017
1540.00,0.0017
1539.00,0.0017
1538.00,0.0017
1537.00,0.0017
1536.00,0.0017
1535.00,0.0017
1534.00,0.0017
1533.00,0.0017
1532.00,0.0018
1531.00,0.0018
1530.00,0.0019
1529.00,0.0019
1528.00,0.0020
1527.00,0.0021
1526.00,0.0021
1525.00,0.0022
1524.00,0.0022
1523.00,0.0022
1522.00,0.0022
1521.00,0.0022
1520.00,0.0022
1519.00,0.0022
1518.00,0.0022
1517.00,0.0023
1516.00,0.0025
1515.00,0.0027
1514.00,0.0030
1513.00,0.0034
1512.00,0.0038
1511.00,0.0041
1510.00,0.0042
1509.00,0.0041
1508.00,0.0039
1507.00,0.0037
1506.00,0.0035
1505.00,0.0034
1504.00,0.0034
1503.00,0.0034
1502.00,0.0033
1501.00,0.0033
1500.00,0.0033
1499.00,0.0033
1498.00,0.0033
1497.00,0.0034
1496.00,0.0035
1495.00,0.0035
1494.00,0.0036
1493.00,0.0037
1492.00,0.0038
1491.00,0.0038
1490.00,0.0039
1489.00,0.0040
1488.00,0.0041
1487.00,0.0042
1486.00,0.0044
1485.00,0.0045
1484.00,0.0046
1483.00,0.0048
1482.00,0.0049
1481.00,0.0051
1480.00,0.0053
1479.00,0.0055
1478.00,0.0056
1477.00,0.0058
1476.00,0.0060
1475.00,0.0063
1474.00,0.0066
1473.00,0.0069
1472.00,0.0075
1471.00,0.0080
1470.00,0.0086
1469.00,0.0093
1468.00,0.0101
1467.00,0.0112
1466.00,0.0126
1465.00,0.0145
1464.00,0.0174
1463.00,0.0212
1462.00,0.0262
1461.00,0.0321
1460.00,0.0380
1459.00,0.0422
1458.00,0.0435
1457.00,0.0425
1456.00,0.0418
1455.00,0.0441
1454.00,0.0508
1453.00,0.0634
1452.00,0.0828
1451.00,0.1077
1450.00,0.1339
1449.00,0.1553
1448.00,0.1665
1447.00,0.1654
1446.00,0.1548
1445.00,0.1386
1444.00,0.1194
1443.00,0.0995
1442.00,0.0812
1441.00,0.0662
1440.00,0.0546
1439.00,0.0459
1438.00,0.0389
1437.00,0.0329
1436.00,0.0279
1435.00,0.0241
1434.00,0.0214
1433.00,0.0193
1432.00,0.0174
1431.00,0.0157
1430.00,0.0143
1429.00,0.0131
1428.00,0.0121
1427.00,0.0114
1426.00,0.0107
1425.00,0.0101
1424.00,0.0096
1423.00,0.0091
1422.00,0.0088
1421.00,0.0086
1420.00,0.0084
1419.00,0.0083
1418.00,0.0083
1417.00,0.0082
1416.00,0.0080
1415.00,0.0077
1414.00,0.0074
1413.00,0.0070
1412.00,0.0067
1411.00,0.0063
1410.00,0.0061
1409.00,0.0059
1408.00,0.0057
1407.00,0.0056
1406.00,0.0055
1405.00,0.0055
1404.00,0.0054
1403.00,0.0053
1402.00,0.0053
1401.00,0.0052
1400.00,0.0051
1399.00,0.0049
1398.00,0.0048
1397.00,0.0048
1396.00,0.0047
1395.00,0.0048
1394.00,0.0049
1393.00,0.0051
1392.00,0.0054
1391.00,0.0058
1390.00,0.0061
1389.00,0.0064
1388.00,0.0064
1387.00,0.0063
1386.00,0.0061
1385.00,0.0059
1384.00,0.0056
1383.00,0.0053
1382.00,0.0052
1381.00,0.0050
1380.00,0.0049
1379.00,0.0048
1378.00,0.0048
1377.00,0.0049
1376.00,0.0049
1375.00,0.0049
1374.00,0.0050
1373.00,0.0051
1372.00,0.0051
1371.00,0.0052
1370.00,0.0054
1369.00,0.0055
1368.00,0.0056
1367.00,0.0058
1366.00,0.0060
1365.00,0.0063
1364.00,0.0065
1363.00,0.0067
1362.00,0.0069
1361.00,0.0070
1360.00,0.0071
1359.00,0.0072
1358.00,0.0073
1357.00,0.0075
1356.00,0.0078
1355.00,0.0082
1354.00,0.0088
1353.00,0.0096
1352.00,0.0108
1351.00,0.0129
1350.00,0.0160
1349.00,0.0201
1348.00,0.0243
1347.00,0.0269
1346.00,0.0266
1345.00,0.0236
1344.00,0.0194
1343.00,0.0154
1342.00,0.0126
1341.00,0.0109
1340.00,0.0101
1339.00,0.0099
1338.00,0.0104
1337.00,0.0114
1336.00,0.0133
1335.00,0.0160
1334.00,0.0186
1333.00,0.0198
1332.00,0.0189
1331.00,0.0163
1330.00,0.0132
1329.00,0.0106
1328.00,0.0088
1327.00,0.0077
1326.00,0.0069
1325.00,0.0064
1324.00,0.0060
1323.00,0.0058
1322.00,0.0056
1321.00,0.0055
1320.00,0.0055
1319.00,0.0055
1318.00,0.0056
1317.00,0.0057
1316.00,0.0059
1315.00,0.0062
1314.00,0.0065
1313.00,0.0071
1312.00,0.0081
1311.00,0.0096
1310.00,0.0118
1309.00,0.0147
1308.00,0.0177
1307.00,0.0196
1306.00,0.0197
1305.00,0.0181
1304.00,0.0154
1303.00,0.0127
1302.00,0.0105
1301.00,0.0089
1300.00,0.0078
1299.00,0.0071
1298.00,0.0066
1297.00,0.0062
1296.00,0.0059
1295.00,0.0057
1294.00,0.0055
1293.00,0.0053
1292.00,0.0052
1291.00,0.0051
1290.00,0.0050
1289.00,0.0050
1288.00,0.0049
1287.00,0.0049
1286.00,0.0050
1285.00,0.0050
1284.00,0.0050
1283.00,0.0050
1282.00,0.0049
1281.00,0.0049
1280.00,0.0049
1279.00,0.0049
1278.00,0.0049
1277.00,0.0049
1276.00,0.0050
1275.00,0.0050
1274.00,0.0050
1273.00,0.0051
1272.00,0.0051
1271.00,0.0053
1270.00,0.0055
1269.00,0.0058
1268.00,0.0060
1267.00,0.0060
1266.00,0.0059
1265.00,0.0056
1264.00,0.0053
1263.00,0.0052
1262.00,0.0053
1261.00,0.0055
1260.00,0.0058
1259.00,0.0065
1258.00,0.0075
1257.00,0.0093
1256.00,0.0122
1255.00,0.0160
1254.00,0.0200
1253.00,0.0224
1252.00,0.0222
1251.00,0.0195
1250.00,0.0155
1249.00,0.0119
1248.00,0.0092
1247.00,0.0075
1246.00,0.0065
1245.00,0.0059
1244.00,0.0056
1243.00,0.0054
1242.00,0.0052
1241.00,0.0052
1240.00,0.0051
1239.00,0.0052
1238.00,0.0052
1237.00,0.0054
1236.00,0.0055
1235.00,0.0057
1234.00,0.0059
1233.00,0.0061
1232.00,0.0065
1231.00,0.0070
1230.00,0.0079
1229.00,0.0091
1228.00,0.0108
1227.00,0.0128
1226.00,0.0146
1225.00,0.0157
1224.00,0.0157
1223.00,0.0145
1222.00,0.0126
1221.00,0.0106
1220.00,0.0089
1219.00,0.0075
1218.00,0.0065
1217.00,0.0058
1216.00,0.0054
1215.00,0.0050
1214.00,0.0048
1213.00,0.0047
1212.00,0.0046
1211.00,0.0046
1210.00,0.0046
1209.00,0.0045
1208.00,0.0043
1207.00,0.0042
1206.00,0.0041
1205.00,0.0040
1204.00,0.0040
1203.00,0.0040
1202.00,0.0039
1201.00,0.0038
1200.00,0.0037
1199.00,0.0036
1198.00,0.0035
1197.00,0.0034
1196.00,0.0033
1195.00,0.0033
1194.00,0.0032
1193.00,0.0032
1192.00,0.0031
1191.00,0.0031
1190.00,0.0030
1189.00,0.0030
1188.00,0.0029
1187.00,0.0029
1186.00,0.0029
1185.00,0.0028
1184.00,0.0028
1183.00,0.0028
1182.00,0.0028
1181.00,0.0028
1180.00,0.0028
1179.00,0.0028
1178.00,0.0028
1177.00,0.0028
1176.00,0.0029
1175.00,0.0029
1174.00,0.0029
1173.00,0.0029
1172.00,0.0030
1171.00,0.0030
1170.00,0.0031
1169.00,0.0032
1168.00,0.0033
1167.00,0.0034
1166.00,0.0035
1165.00,0.0037
1164.00,0.0039
1163.00,0.0041
1162.00,0.0043
1161.00,0.0046
1160.00,0.0048
1159.00,0.0052
1158.00,0.0057
1157.00,0.0065
1156.00,0.0075
1155.00,0.0085
1154.00,0.0090
1153.00,0.0090
1152.00,0.0085
1151.00,0.0078
1150.00,0.0073
1149.00,0.0071
1148.00,0.0071
1147.00,0.0073
1146.00,0.0076
1145.00,0.0082
1144.00,0.0090
1143.00,0.0105
1142.00,0.0130
1141.00,0.0163
1140.00,0.0196
1139.00,0.0218
1138.00,0.0218
1137.00,0.0195
1136.00,0.0161
1135.00,0.0128
1134.00,0.0104
1133.00,0.0088
1132.00,0.0078
1131.00,0.0072
1130.00,0.0068
1129.00,0.0066
1128.00,0.0064
1127.00,0.0062
1126.00,0.0061
1125.00,0.0059
1124.00,0.0057
1123.00,0.0056
1122.00,0.0055
1121.00,0.0055
1120.00,0.0055
1119.00,0.0055
1118.00,0.0055
1117.00,0.0054
1116.00,0.0055
1115.00,0.0056
1114.00,0.0057
1113.00,0.0058
1112.00,0.0059
1111.00,0.0060
1110.00,0.0060
1109.00,0.0060
1108.00,0.0059
1107.00,0.0059
1106.00,0.0059
1105.00,0.0060
1104.00,0.0059
1103.00,0.0059
1102.00,0.0058
1101.00,0.0057
1100.00,0.0055
1099.00,0.0054
1098.00,0.0052
1097.00,0.0050
1096.00,0.0049
1095.00,0.0047
1094.00,0.0046
1093.00,0.0045
1092.00,0.0044
1091.00,0.0044
1090.00,0.0044
1089.00,0.0044
1088.00,0.0044
1087.00,0.0044
1086.00,0.0045
1085.00,0.0045
1084.00,0.0046
1083.00,0.0046
1082.00,0.0047
1081.00,0.0047
1080.00,0.0048
1079.00,0.0048
1078.00,0.0048
1077.00,0.0048
1076.00,0.0048
1075.00,0.0048
1074.00,0.0048
1073.00,0.0048
1072.00,0.0048
1071.00,0.0049
1070.00,0.0049
1069.00,0.0050
1068.00,0.0052
1067.00,0.0053
1066.00,0.0056
1065.00,0.0060
1064.00,0.0064
1063.00,0.0069
1062.00,0.0077
1061.00,0.0089
1060.00,0.0107
1059.00,0.0130
1058.00,0.0152
1057.00,0.0167
1056.00,0.0169
1055.00,0.0159
1054.00,0.0144
1053.00,0.0130
1052.00,0.0119
1051.00,0.0112
1050.00,0.0106
1049.00,0.0100
1048.00,0.0094
1047.00,0.0088
1046.00,0.0082
1045.00,0.0078
1044.00,0.0073
1043.00,0.0070
1042.00,0.0068
1041.00,0.0066
1040.00,0.0065
1039.00,0.0065
1038.00,0.0066
1037.00,0.0068
1036.00,0.0071
1035.00,0.0075
1034.00,0.0081
1033.00,0.0093
1032.00,0.0112
1031.00,0.0140
1030.00,0.0168
1029.00,0.0185
1028.00,0.0183
1027.00,0.0165
1026.00,0.0140
1025.00,0.0118
1024.00,0.0103
1023.00,0.0093
1022.00,0.0087
1021.00,0.0083
1020.00,0.0080
1019.00,0.0078
1018.00,0.0077
1017.00,0.0077
1016.00,0.0078
1015.00,0.0081
1014.00,0.0085
1013.00,0.0090
1012.00,0.0094
1011.00,0.0094
1010.00,0.0090
1009.00,0.0085
1008.00,0.0079
1007.00,0.0076
1006.00,0.0075
1005.00,0.0075
1004.00,0.0075
1003.00,0.0076
1002.00,0.0077
1001.00,0.0078
1000.00,0.0079
999.00,0.0081
998.00,0.0083
997.00,0.0085
996.00,0.0086
995.00,0.0089
994.00,0.0092
993.00,0.0095
992.00,0.0100
991.00,0.0106
990.00,0.0115
989.00,0.0124
988.00,0.0130
987.00,0.0130
986.00,0.0124
985.00,0.0115
984.00,0.0105
983.00,0.0097
982.00,0.0093
981.00,0.0092
980.00,0.0093
979.00,0.0099
978.00,0.0110
977.00,0.0133
976.00,0.0176
975.00,0.0243
974.00,0.0324
973.00,0.0390
972.00,0.0407
971.00,0.0367
970.00,0.0293
969.00,0.0217
968.00,0.0158
967.00,0.0118
966.00,0.0094
965.00,0.0078
964.00,0.0069
963.00,0.0063
962.00,0.0059
961.00,0.0057
960.00,0.0056
959.00,0.0057
958.00,0.0058
957.00,0.0060
956.00,0.0060
955.00,0.0058
954.00,0.0054
953.00,0.0050
952.00,0.0046
951.00,0.0043
950.00,0.0042
949.00,0.0041
948.00,0.0040
947.00,0.0040
946.00,0.0040
945.00,0.0040
944.00,0.0041
943.00,0.0042
942.00,0.0043
941.00,0.0044
940.00,0.0045
939.00,0.0047
938.00,0.0050
937.00,0.0053
936.00,0.0057
935.00,0.0062
934.00,0.0067
933.00,0.0074
932.00,0.0082
931.00,0.0093
930.00,0.0112
929.00,0.0144
928.00,0.0201
927.00,0.0285
926.00,0.0381
925.00,0.0454
924.00,0.0468
923.00,0.0416
922.00,0.0327
921.00,0.0239
920.00,0.0174
919.00,0.0134
918.00,0.0110
917.00,0.0096
916.00,0.0087
915.00,0.0080
914.00,0.0074
913.00,0.0069
912.00,0.0065
911.00,0.0061
910.00,0.0058
909.00,0.0056
908.00,0.0054
907.00,0.0053
906.00,0.0051
905.00,0.0049
904.00,0.0048
903.00,0.0048
902.00,0.0047
901.00,0.0046
900.00,0.0046
899.00,0.0045
898.00,0.0044
897.00,0.0043
896.00,0.0042
895.00,0.0042
894.00,0.0041
893.00,0.0041
892.00,0.0041
891.00,0.0041
890.00,0.0040
889.00,0.0040
888.00,0.0040
887.00,0.0040
886.00,0.0040
885.00,0.0040
884.00,0.0040
883.00,0.0040
882.00,0.0039
881.00,0.0039
880.00,0.0040
879.00,0.0041
878.00,0.0041
877.00,0.0042
876.00,0.0043
875.00,0.0044
874.00,0.0044
873.00,0.0045
872.00,0.0045
871.00,0.0046
870.00,0.0046
869.00,0.0046
868.00,0.0047
867.00,0.0047
866.00,0.0048
865.00,0.0049
864.00,0.0050
863.00,0.0051
862.00,0.0052
861.00,0.0052
860.00,0.0052
859.00,0.0051
858.00,0.0051
857.00,0.0051
856.00,0.0052
855.00,0.0053
854.00,0.0055
853.00,0.0056
852.00,0.0059
851.00,0.0063
850.00,0.0068
849.00,0.0075
848.00,0.0085
847.00,0.0099
846.00,0.0118
845.00,0.0147
844.00,0.0189
843.00,0.0250
842.00,0.0325
841.00,0.0397
840.00,0.0443
839.00,0.0443
838.00,0.0399
837.00,0.0330
836.00,0.0260
835.00,0.0202
834.00,0.0160
833.00,0.0131
832.00,0.0114
831.00,0.0106
830.00,0.0109
829.00,0.0126
828.00,0.0165
827.00,0.0230
826.00,0.0305
825.00,0.0357
824.00,0.0359
823.00,0.0309
822.00,0.0234
821.00,0.0167
820.00,0.0121
819.00,0.0093
818.00,0.0076
817.00,0.0065
816.00,0.0059
815.00,0.0055
814.00,0.0051
813.00,0.0050
812.00,0.0049
811.00,0.0048
810.00,0.0047
809.00,0.0047
808.00,0.0047
807.00,0.0050
806.00,0.0055
805.00,0.0062
804.00,0.0068
803.00,0.0069
802.00,0.0065
801.00,0.0058
800.00,0.0052
799.00,0.0047
798.00,0.0045
797.00,0.0045
796.00,0.0045
795.00,0.0046
794.00,0.0046
793.00,0.0048
792.00,0.0050
791.00,0.0053
790.00,0.0057
789.00,0.0063
788.00,0.0073
787.00,0.0090
786.00,0.0122
785.00,0.0179
784.00,0.0269
783.00,0.0378
782.00,0.0476
781.00,0.0521
780.00,0.0498
779.00,0.0423
778.00,0.0331
777.00,0.0248
776.00,0.0184
775.00,0.0140
774.00,0.0112
773.00,0.0093
772.00,0.0081
771.00,0.0073
770.00,0.0067
769.00,0.0062
768.00,0.0059
767.00,0.0055
766.00,0.0052
765.00,0.0050
764.00,0.0049
763.00,0.0048
762.00,0.0047
761.00,0.0048
760.00,0.0048
759.00,0.0048
758.00,0.0048
757.00,0.0048
756.00,0.0048
755.00,0.0049
754.00,0.0050
753.00,0.0051
752.00,0.0051
751.00,0.0051
750.00,0.0050
749.00,0.0049
748.00,0.0049
747.00,0.0049
746.00,0.0049
745.00,0.0049
744.00,0.0048
743.00,0.0048
742.00,0.0048
741.00,0.0047
740.00,0.0047
739.00,0.0046
738.00,0.0045
737.00,0.0045
736.00,0.0045
735.00,0.0044
734.00,0.0044
733.00,0.0043
732.00,0.0043
731.00,0.0043
730.00,0.0043
729.00,0.0043
728.00,0.0043
727.00,0.0042
726.00,0.0042
725.00,0.0042
724.00,0.0042
723.00,0.0042
722.00,0.0042
721.00,0.0042
720.00,0.0042
719.00,0.0042
718.00,0.0042
717.00,0.0043
716.00,0.0043
715.00,0.0044
714.00,0.0043
713.00,0.0043
712.00,0.0043
711.00,0.0043
710.00,0.0042
709.00,0.0042
708.00,0.0042
707.00,0.0042
706.00,0.0041
705.00,0.0041
704.00,0.0041
703.00,0.0042
702.00,0.0042
701.00,0.0042
700.00,0.0041
699.00,0.0041
698.00,0.0041
697.00,0.0041
696.00,0.0040
695.00,0.0040
694.00,0.0040
693.00,0.0040
692.00,0.0041
691.00,0.0040
690.00,0.0040
689.00,0.0040
688.00,0.0040
687.00,0.0040
686.00,0.0040
685.00,0.0040
684.00,0.0040
683.00,0.0040
682.00,0.0040
681.00,0.0041
680.00,0.0041
679.00,0.0041
678.00,0.0041
677.00,0.0040
676.00,0.0039
675.00,0.0039
674.00,0.0040
673.00,0.0041
672.00,0.0041
671.00,0.0043
670.00,0.0045
669.00,0.0047
668.00,0.0049
667.00,0.0048
666.00,0.0046
665.00,0.0043
664.00,0.0042
663.00,0.0042
662.00,0.0043
661.00,0.0044
660.00,0.0045
659.00,0.0046
658.00,0.0047
657.00,0.0048
656.00,0.0050
655.00,0.0051
654.00,0.0052
653.00,0.0053
652.00,0.0054
651.00,0.0054
650.00,0.0055
649.00,0.0057
648.00,0.0058
647.00,0.0058
646.00,0.0059
645.00,0.0059
644.00,0.0060
643.00,0.0060
642.00,0.0059
641.00,0.0059
640.00,0.0058
639.00,0.0058
638.00,0.0058
637.00,0.0058
636.00,0.0058
635.00,0.0058
634.00,0.0058
633.00,0.0059
632.00,0.0060
631.00,0.0060
630.00,0.0060
629.00,0.0061
628.00,0.0061
627.00,0.0062
626.00,0.0062
625.00,0.0062
624.00,0.0063
623.00,0.0065
622.00,0.0070
621.00,0.0077
620.00,0.0085
619.00,0.0088
618.00,0.0085
617.00,0.0079
616.00,0.0072
615.00,0.0068
614.00,0.0066
613.00,0.0064
612.00,0.0064
611.00,0.0063
610.00,0.0063
609.00,0.0063
608.00,0.0063
607.00,0.0064
606.00,0.0064
605.00,0.0064
604.00,0.0064
603.00,0.0064
602.00,0.0064
601.00,0.0064
600.00,0.0065
599.00,0.0065
598.00,0.0064
597.00,0.0063
596.00,0.0062
595.00,0.0061
594.00,0.0060
593.00,0.0059
592.00,0.0058
591.00,0.0058
590.00,0.0058
589.00,0.0058
588.00,0.0058
587.00,0.0058
586.00,0.0058
585.00,0.0057
584.00,0.0057
583.00,0.0058
582.00,0.0058
581.00,0.0058
580.00,0.0058
579.00,0.0059
578.00,0.0059
577.00,0.0059
576.00,0.0059
575.00,0.0059
574.00,0.0059
573.00,0.0059
572.00,0.0059
571.00,0.0060
570.00,0.0061
569.00,0.0061
568.00,0.0061
567.00,0.0061
566.00,0.0062
565.00,0.0062
564.00,0.0063
563.00,0.0064
562.00,0.0065
561.00,0.0066
560.00,0.0067
559.00,0.0067
558.00,0.0066
557.00,0.0066
556.00,0.0065
555.00,0.0065
554.00,0.0065
553.00,0.0065
552.00,0.0064
551.00,0.0062
550.00,0.0062
549.00,0.0063
548.00,0.0063
547.00,0.0063
546.00,0.0063
545.00,0.0063
544.00,0.0062
543.00,0.0061
542.00,0.0061
541.00,0.0061
540.00,0.0063
539.00,0.0065
538.00,0.0067
537.00,0.0069
536.00,0.0071
535.00,0.0073
534.00,0.0076
533.00,0.0082
532.00,0.0090
531.00,0.0104
530.00,0.0124
529.00,0.0152
528.00,0.0184
527.00,0.0207
526.00,0.0210
525.00,0.0191
524.00,0.0160
523.00,0.0127
522.00,0.0102
521.00,0.0086
520.00,0.0077
519.00,0.0071
518.00,0.0066
517.00,0.0062
516.00,0.0060
515.00,0.0059
514.00,0.0058
513.00,0.0058
512.00,0.0058
511.00,0.0057
510.00,0.0057
509.00,0.0057
508.00,0.0057
507.00,0.0056
506.00,0.0055
505.00,0.0054
504.00,0.0055
503.00,0.0056
502.00,0.0056
501.00,0.0056
500.00,0.0056
499.00,0.0056
498.00,0.0056
497.00,0.0056
496.00,0.0055
495.00,0.0056
494.00,0.0057
493.00,0.0057
492.00,0.0056
491.00,0.0055
490.00,0.0055
489.00,0.0055
488.00,0.0055
487.00,0.0055
486.00,0.0054
485.00,0.0054
484.00,0.0056
483.00,0.0060
482.00,0.0065
481.00,0.0072
480.00,0.0083
479.00,0.0104
478.00,0.0137
477.00,0.0180
476.00,0.0219
475.00,0.0237
474.00,0.0223
473.00,0.0184
472.00,0.0140
471.00,0.0106
470.00,0.0084
469.00,0.0073
468.00,0.0066
467.00,0.0061
466.00,0.0058
465.00,0.0056
464.00,0.0055
463.00,0.0054
462.00,0.0053
461.00,0.0052
460.00,0.0051
459.00,0.0050
458.00,0.0051
457.00,0.0053
456.00,0.0058
455.00,0.0062
454.00,0.0063
453.00,0.0060
452.00,0.0055
451.00,0.0052
450.00,0.0050
449.00,0.0049
448.00,0.0048
447.00,0.0046
446.00,0.0045
445.00,0.0043
444.00,0.0042
443.00,0.0040
442.00,0.0040
441.00,0.0040
440.00,0.0041
439.00,0.0042
438.00,0.0045
437.00,0.0048
436.00,0.0050
435.00,0.0051
434.00,0.0049
433.00,0.0046
432.00,0.0042
431.00,0.0037
430.00,0.0034
429.00,0.0031
428.00,0.0029
427.00,0.0029
426.00,0.0033
425.00,0.0040
424.00,0.0047
423.00,0.0049
422.00,0.0048
421.00,0.0043
420.00,0.0037
419.00,0.0032
418.00,0.0032
417.00,0.0040
416.00,0.0049
415.00,0.0054
414.00,0.0053
413.00,0.0049
412.00,0.0044
411.00,0.0042
410.00,0.0042
409.00,0.0042
408.00,0.0042
407.00,0.0041
406.00,0.0042
405.00,0.0043
404.00,0.0044
403.00,0.0047
402.00,0.0052
401.00,0.0058
400.00,0.0062
