Created as New Dataset,Sample 841 By YargerLab Date Saturday, April 18 2026
cm-1,A
4000.00,0.0141
3999.00,0.0141
3998.00,0.0141
3997.00,0.0141
3996.00,0.0141
3995.00,0.0141
3994.00,0.0141
3993.00,0.0141
3992.00,0.0141
3991.00,0.0141
3990.00,0.0141
3989.00,0.0141
3988.00,0.0141
3987.00,0.0141
3986.00,0.0141
3985.00,0.0140
3984.00,0.0140
3983.00,0.0140
3982.00,0.0140
3981.00,0.0140
3980.00,0.0140
3979.00,0.0140
3978.00,0.0140
3977.00,0.0140
3976.00,0.0140
3975.00,0.0140
3974.00,0.0140
3973.00,0.0140
3972.00,0.0140
3971.00,0.0140
3970.00,0.0140
3969.00,0.0140
3968.00,0.0140
3967.00,0.0140
3966.00,0.0140
3965.00,0.0139
3964.00,0.0139
3963.00,0.0139
3962.00,0.0139
3961.00,0.0139
3960.00,0.0139
3959.00,0.0139
3958.00,0.0139
3957.00,0.0139
3956.00,0.0139
3955.00,0.0139
3954.00,0.0139
3953.00,0.0139
3952.00,0.0139
3951.00,0.0139
3950.00,0.0139
3949.00,0.0139
3948.00,0.0139
3947.00,0.0139
3946.00,0.0139
3945.00,0.0139
3944.00,0.0139
3943.00,0.0139
3942.00,0.0139
3941.00,0.0139
3940.00,0.0138
3939.00,0.0138
3938.00,0.0138
3937.00,0.0138
3936.00,0.0138
3935.00,0.0138
3934.00,0.0138
3933.00,0.0138
3932.00,0.0138
3931.00,0.0138
3930.00,0.0138
3929.00,0.0138
3928.00,0.0138
3927.00,0.0138
3926.00,0.0138
3925.00,0.0139
3924.00,0.0139
3923.00,0.0138
3922.00,0.0138
3921.00,0.0138
3920.00,0.0138
3919.00,0.0138
3918.00,0.0138
3917.00,0.0138
3916.00,0.0137
3915.00,0.0137
3914.00,0.0137
3913.00,0.0137
3912.00,0.0137
3911.00,0.0137
3910.00,0.0137
3909.00,0.0137
3908.00,0.0137
3907.00,0.0137
3906.00,0.0137
3905.00,0.0137
3904.00,0.0137
3903.00,0.0137
3902.00,0.0137
3901.00,0.0137
3900.00,0.0137
3899.00,0.0136
3898.00,0.0136
3897.00,0.0136
3896.00,0.0136
3895.00,0.0136
3894.00,0.0136
3893.00,0.0136
3892.00,0.0136
3891.00,0.0136
3890.00,0.0136
3889.00,0.0136
3888.00,0.0136
3887.00,0.0136
3886.00,0.0136
3885.00,0.0136
3884.00,0.0136
3883.00,0.0135
3882.00,0.0135
3881.00,0.0135
3880.00,0.0135
3879.00,0.0135
3878.00,0.0135
3877.00,0.0135
3876.00,0.0135
3875.00,0.0135
3874.00,0.0135
3873.00,0.0135
3872.00,0.0134
3871.00,0.0134
3870.00,0.0134
3869.00,0.0134
3868.00,0.0134
3867.00,0.0134
3866.00,0.0134
3865.00,0.0134
3864.00,0.0134
3863.00,0.0134
3862.00,0.0134
3861.00,0.0134
3860.00,0.0134
3859.00,0.0134
3858.00,0.0133
3857.00,0.0133
3856.00,0.0132
3855.00,0.0132
3854.00,0.0132
3853.00,0.0132
3852.00,0.0132
3851.00,0.0132
3850.00,0.0133
3849.00,0.0133
3848.00,0.0133
3847.00,0.0133
3846.00,0.0133
3845.00,0.0133
3844.00,0.0133
3843.00,0.0133
3842.00,0.0132
3841.00,0.0132
3840.00,0.0132
3839.00,0.0132
3838.00,0.0132
3837.00,0.0132
3836.00,0.0132
3835.00,0.0132
3834.00,0.0132
3833.00,0.0132
3832.00,0.0132
3831.00,0.0132
3830.00,0.0132
3829.00,0.0132
3828.00,0.0132
3827.00,0.0132
3826.00,0.0131
3825.00,0.0131
3824.00,0.0131
3823.00,0.0130
3822.00,0.0131
3821.00,0.0131
3820.00,0.0131
3819.00,0.0131
3818.00,0.0131
3817.00,0.0131
3816.00,0.0131
3815.00,0.0131
3814.00,0.0131
3813.00,0.0131
3812.00,0.0131
3811.00,0.0131
3810.00,0.0131
3809.00,0.0131
3808.00,0.0131
3807.00,0.0131
3806.00,0.0131
3805.00,0.0130
3804.00,0.0130
3803.00,0.0130
3802.00,0.0130
3801.00,0.0130
3800.00,0.0130
3799.00,0.0131
3798.00,0.0131
3797.00,0.0131
3796.00,0.0131
3795.00,0.0131
3794.00,0.0131
3793.00,0.0131
3792.00,0.0131
3791.00,0.0131
3790.00,0.0131
3789.00,0.0131
3788.00,0.0131
3787.00,0.0130
3786.00,0.0130
3785.00,0.0130
3784.00,0.0130
3783.00,0.0130
3782.00,0.0130
3781.00,0.0130
3780.00,0.0130
3779.00,0.0130
3778.00,0.0130
3777.00,0.0129
3776.00,0.0129
3775.00,0.0129
3774.00,0.0128
3773.00,0.0128
3772.00,0.0128
3771.00,0.0128
3770.00,0.0128
3769.00,0.0128
3768.00,0.0128
3767.00,0.0128
3766.00,0.0128
3765.00,0.0128
3764.00,0.0127
3763.00,0.0127
3762.00,0.0127
3761.00,0.0127
3760.00,0.0127
3759.00,0.0127
3758.00,0.0127
3757.00,0.0127
3756.00,0.0126
3755.00,0.0126
3754.00,0.0126
3753.00,0.0126
3752.00,0.0126
3751.00,0.0126
3750.00,0.0126
3749.00,0.0125
3748.00,0.0125
3747.00,0.0125
3746.00,0.0125
3745.00,0.0125
3744.00,0.0124
3743.00,0.0124
3742.00,0.0124
3741.00,0.0123
3740.00,0.0123
3739.00,0.0123
3738.00,0.0123
3737.00,0.0123
3736.00,0.0122
3735.00,0.0122
3734.00,0.0122
3733.00,0.0122
3732.00,0.0122
3731.00,0.0122
3730.00,0.0121
3729.00,0.0121
3728.00,0.0121
3727.00,0.0121
3726.00,0.0121
3725.00,0.0120
3724.00,0.0120
3723.00,0.0120
3722.00,0.0120
3721.00,0.0120
3720.00,0.0121
3719.00,0.0121
3718.00,0.0121
3717.00,0.0121
3716.00,0.0121
3715.00,0.0121
3714.00,0.0121
3713.00,0.0121
3712.00,0.0120
3711.00,0.0120
3710.00,0.0120
3709.00,0.0119
3708.00,0.0119
3707.00,0.0119
3706.00,0.0119
3705.00,0.0118
3704.00,0.0118
3703.00,0.0118
3702.00,0.0118
3701.00,0.0118
3700.00,0.0118
3699.00,0.0118
3698.00,0.0118
3697.00,0.0118
3696.00,0.0118
3695.00,0.0118
3694.00,0.0118
3693.00,0.0118
3692.00,0.0117
3691.00,0.0117
3690.00,0.0117
3689.00,0.0117
3688.00,0.0117
3687.00,0.0117
3686.00,0.0118
3685.00,0.0118
3684.00,0.0118
3683.00,0.0117
3682.00,0.0117
3681.00,0.0117
3680.00,0.0116
3679.00,0.0116
3678.00,0.0116
3677.00,0.0116
3676.00,0.0116
3675.00,0.0116
3674.00,0.0116
3673.00,0.0116
3672.00,0.0116
3671.00,0.0116
3670.00,0.0116
3669.00,0.0116
3668.00,0.0116
3667.00,0.0116
3666.00,0.0116
3665.00,0.0116
3664.00,0.0116
3663.00,0.0116
3662.00,0.0116
3661.00,0.0116
3660.00,0.0116
3659.00,0.0116
3658.00,0.0116
3657.00,0.0116
3656.00,0.0116
3655.00,0.0116
3654.00,0.0116
3653.00,0.0116
3652.00,0.0116
3651.00,0.0117
3650.00,0.0117
3649.00,0.0117
3648.00,0.0117
3647.00,0.0117
3646.00,0.0117
3645.00,0.0117
3644.00,0.0117
3643.00,0.0117
3642.00,0.0117
3641.00,0.0117
3640.00,0.0117
3639.00,0.0117
3638.00,0.0116
3637.00,0.0116
3636.00,0.0116
3635.00,0.0116
3634.00,0.0116
3633.00,0.0116
3632.00,0.0116
3631.00,0.0116
3630.00,0.0116
3629.00,0.0116
3628.00,0.0115
3627.00,0.0115
3626.00,0.0115
3625.00,0.0115
3624.00,0.0115
3623.00,0.0115
3622.00,0.0115
3621.00,0.0115
3620.00,0.0115
3619.00,0.0115
3618.00,0.0115
3617.00,0.0115
3616.00,0.0116
3615.00,0.0116
3614.00,0.0116
3613.00,0.0115
3612.00,0.0115
3611.00,0.0115
3610.00,0.0115
3609.00,0.0115
3608.00,0.0114
3607.00,0.0114
3606.00,0.0114
3605.00,0.0114
3604.00,0.0114
3603.00,0.0114
3602.00,0.0114
3601.00,0.0114
3600.00,0.0114
3599.00,0.0114
3598.00,0.0113
3597.00,0.0113
3596.00,0.0113
3595.00,0.0113
3594.00,0.0113
3593.00,0.0113
3592.00,0.0113
3591.00,0.0113
3590.00,0.0113
3589.00,0.0113
3588.00,0.0113
3587.00,0.0113
3586.00,0.0113
3585.00,0.0113
3584.00,0.0113
3583.00,0.0113
3582.00,0.0113
3581.00,0.0113
3580.00,0.0113
3579.00,0.0113
3578.00,0.0113
3577.00,0.0113
3576.00,0.0113
3575.00,0.0113
3574.00,0.0113
3573.00,0.0113
3572.00,0.0113
3571.00,0.0113
3570.00,0.0114
3569.00,0.0114
3568.00,0.0114
3567.00,0.0114
3566.00,0.0114
3565.00,0.0114
3564.00,0.0113
3563.00,0.0113
3562.00,0.0113
3561.00,0.0113
3560.00,0.0113
3559.00,0.0114
3558.00,0.0114
3557.00,0.0114
3556.00,0.0114
3555.00,0.0114
3554.00,0.0114
3553.00,0.0114
3552.00,0.0114
3551.00,0.0114
3550.00,0.0114
3549.00,0.0114
3548.00,0.0114
3547.00,0.0114
3546.00,0.0114
3545.00,0.0114
3544.00,0.0114
3543.00,0.0114
3542.00,0.0114
3541.00,0.0114
3540.00,0.0115
3539.00,0.0115
3538.00,0.0115
3537.00,0.0115
3536.00,0.0115
3535.00,0.0115
3534.00,0.0114
3533.00,0.0114
3532.00,0.0114
3531.00,0.0114
3530.00,0.0115
3529.00,0.0115
3528.00,0.0115
3527.00,0.0115
3526.00,0.0115
3525.00,0.0115
3524.00,0.0115
3523.00,0.0115
3522.00,0.0115
3521.00,0.0115
3520.00,0.0115
3519.00,0.0115
3518.00,0.0115
3517.00,0.0115
3516.00,0.0116
3515.00,0.0116
3514.00,0.0116
3513.00,0.0116
3512.00,0.0116
3511.00,0.0117
3510.00,0.0117
3509.00,0.0117
3508.00,0.0117
3507.00,0.0117
3506.00,0.0117
3505.00,0.0117
3504.00,0.0117
3503.00,0.0117
3502.00,0.0117
3501.00,0.0117
3500.00,0.0117
3499.00,0.0117
3498.00,0.0117
3497.00,0.0117
3496.00,0.0117
3495.00,0.0117
3494.00,0.0117
3493.00,0.0117
3492.00,0.0117
3491.00,0.0117
3490.00,0.0117
3489.00,0.0117
3488.00,0.0117
3487.00,0.0117
3486.00,0.0117
3485.00,0.0117
3484.00,0.0116
3483.00,0.0116
3482.00,0.0116
3481.00,0.0116
3480.00,0.0116
3479.00,0.0116
3478.00,0.0116
3477.00,0.0116
3476.00,0.0116
3475.00,0.0116
3474.00,0.0116
3473.00,0.0116
3472.00,0.0116
3471.00,0.0116
3470.00,0.0116
3469.00,0.0115
3468.00,0.0116
3467.00,0.0116
3466.00,0.0116
3465.00,0.0117
3464.00,0.0117
3463.00,0.0117
3462.00,0.0117
3461.00,0.0117
3460.00,0.0117
3459.00,0.0118
3458.00,0.0118
3457.00,0.0118
3456.00,0.0119
3455.00,0.0119
3454.00,0.0119
3453.00,0.0120
3452.00,0.0120
3451.00,0.0120
3450.00,0.0119
3449.00,0.0119
3448.00,0.0120
3447.00,0.0120
3446.00,0.0121
3445.00,0.0121
3444.00,0.0121
3443.00,0.0121
3442.00,0.0121
3441.00,0.0121
3440.00,0.0121
3439.00,0.0121
3438.00,0.0121
3437.00,0.0120
3436.00,0.0121
3435.00,0.0121
3434.00,0.0122
3433.00,0.0123
3432.00,0.0123
3431.00,0.0124
3430.00,0.0124
3429.00,0.0125
3428.00,0.0125
3427.00,0.0126
3426.00,0.0126
3425.00,0.0127
3424.00,0.0127
3423.00,0.0127
3422.00,0.0128
3421.00,0.0128
3420.00,0.0129
3419.00,0.0129
3418.00,0.0130
3417.00,0.0130
3416.00,0.0130
3415.00,0.0130
3414.00,0.0130
3413.00,0.0130
3412.00,0.0131
3411.00,0.0131
3410.00,0.0132
3409.00,0.0133
3408.00,0.0134
3407.00,0.0135
3406.00,0.0135
3405.00,0.0135
3404.00,0.0134
3403.00,0.0134
3402.00,0.0133
3401.00,0.0134
3400.00,0.0135
3399.00,0.0136
3398.00,0.0138
3397.00,0.0140
3396.00,0.0140
3395.00,0.0140
3394.00,0.0140
3393.00,0.0140
3392.00,0.0141
3391.00,0.0142
3390.00,0.0144
3389.00,0.0146
3388.00,0.0148
3387.00,0.0149
3386.00,0.0150
3385.00,0.0151
3384.00,0.0152
3383.00,0.0152
3382.00,0.0152
3381.00,0.0153
3380.00,0.0153
3379.00,0.0154
3378.00,0.0154
3377.00,0.0155
3376.00,0.0156
3375.00,0.0157
3374.00,0.0157
3373.00,0.0156
3372.00,0.0155
3371.00,0.0154
3370.00,0.0154
3369.00,0.0154
3368.00,0.0155
3367.00,0.0157
3366.00,0.0160
3365.00,0.0162
3364.00,0.0163
3363.00,0.0164
3362.00,0.0164
3361.00,0.0165
3360.00,0.0166
3359.00,0.0168
3358.00,0.0169
3357.00,0.0170
3356.00,0.0171
3355.00,0.0171
3354.00,0.0171
3353.00,0.0170
3352.00,0.0169
3351.00,0.0170
3350.00,0.0171
3349.00,0.0173
3348.00,0.0175
3347.00,0.0177
3346.00,0.0178
3345.00,0.0178
3344.00,0.0178
3343.00,0.0178
3342.00,0.0178
3341.00,0.0179
3340.00,0.0179
3339.00,0.0179
3338.00,0.0180
3337.00,0.0182
3336.00,0.0185
3335.00,0.0187
3334.00,0.0189
3333.00,0.0190
3332.00,0.0191
3331.00,0.0192
3330.00,0.0192
3329.00,0.0193
3328.00,0.0192
3327.00,0.0192
3326.00,0.0193
3325.00,0.0194
3324.00,0.0197
3323.00,0.0199
3322.00,0.0201
3321.00,0.0202
3320.00,0.0204
3319.00,0.0205
3318.00,0.0206
3317.00,0.0207
3316.00,0.0208
3315.00,0.0209
3314.00,0.0210
3313.00,0.0210
3312.00,0.0210
3311.00,0.0210
3310.00,0.0209
3309.00,0.0207
3308.00,0.0207
3307.00,0.0207
3306.00,0.0208
3305.00,0.0211
3304.00,0.0215
3303.00,0.0219
3302.00,0.0222
3301.00,0.0224
3300.00,0.0226
3299.00,0.0226
3298.00,0.0226
3297.00,0.0226
3296.00,0.0227
3295.00,0.0227
3294.00,0.0228
3293.00,0.0230
3292.00,0.0232
3291.00,0.0235
3290.00,0.0237
3289.00,0.0240
3288.00,0.0242
3287.00,0.0244
3286.00,0.0246
3285.00,0.0247
3284.00,0.0249
3283.00,0.0251
3282.00,0.0252
3281.00,0.0254
3280.00,0.0255
3279.00,0.0256
3278.00,0.0258
3277.00,0.0259
3276.00,0.0260
3275.00,0.0261
3274.00,0.0261
3273.00,0.0262
3272.00,0.0263
3271.00,0.0265
3270.00,0.0268
3269.00,0.0272
3268.00,0.0275
3267.00,0.0278
3266.00,0.0281
3265.00,0.0283
3264.00,0.0285
3263.00,0.0286
3262.00,0.0288
3261.00,0.0290
3260.00,0.0291
3259.00,0.0292
3258.00,0.0293
3257.00,0.0294
3256.00,0.0295
3255.00,0.0297
3254.00,0.0300
3253.00,0.0302
3252.00,0.0303
3251.00,0.0304
3250.00,0.0305
3249.00,0.0305
3248.00,0.0306
3247.00,0.0307
3246.00,0.0309
3245.00,0.0312
3244.00,0.0314
3243.00,0.0316
3242.00,0.0318
3241.00,0.0319
3240.00,0.0321
3239.00,0.0323
3238.00,0.0324
3237.00,0.0325
3236.00,0.0326
3235.00,0.0327
3234.00,0.0328
3233.00,0.0330
3232.00,0.0333
3231.00,0.0336
3230.00,0.0339
3229.00,0.0342
3228.00,0.0344
3227.00,0.0347
3226.00,0.0349
3225.00,0.0351
3224.00,0.0353
3223.00,0.0355
3222.00,0.0356
3221.00,0.0358
3220.00,0.0360
3219.00,0.0362
3218.00,0.0364
3217.00,0.0367
3216.00,0.0369
3215.00,0.0371
3214.00,0.0373
3213.00,0.0376
3212.00,0.0378
3211.00,0.0380
3210.00,0.0382
3209.00,0.0384
3208.00,0.0387
3207.00,0.0389
3206.00,0.0391
3205.00,0.0394
3204.00,0.0396
3203.00,0.0399
3202.00,0.0401
3201.00,0.0403
3200.00,0.0406
3199.00,0.0408
3198.00,0.0411
3197.00,0.0413
3196.00,0.0416
3195.00,0.0419
3194.00,0.0421
3193.00,0.0423
3192.00,0.0426
3191.00,0.0428
3190.00,0.0430
3189.00,0.0433
3188.00,0.0436
3187.00,0.0438
3186.00,0.0441
3185.00,0.0443
3184.00,0.0446
3183.00,0.0448
3182.00,0.0451
3181.00,0.0453
3180.00,0.0456
3179.00,0.0458
3178.00,0.0461
3177.00,0.0463
3176.00,0.0466
3175.00,0.0468
3174.00,0.0470
3173.00,0.0472
3172.00,0.0475
3171.00,0.0477
3170.00,0.0480
3169.00,0.0482
3168.00,0.0485
3167.00,0.0487
3166.00,0.0489
3165.00,0.0492
3164.00,0.0494
3163.00,0.0496
3162.00,0.0499
3161.00,0.0501
3160.00,0.0504
3159.00,0.0506
3158.00,0.0508
3157.00,0.0510
3156.00,0.0512
3155.00,0.0514
3154.00,0.0515
3153.00,0.0518
3152.00,0.0520
3151.00,0.0524
3150.00,0.0527
3149.00,0.0530
3148.00,0.0533
3147.00,0.0536
3146.00,0.0538
3145.00,0.0541
3144.00,0.0544
3143.00,0.0546
3142.00,0.0548
3141.00,0.0550
3140.00,0.0553
3139.00,0.0555
3138.00,0.0559
3137.00,0.0562
3136.00,0.0565
3135.00,0.0568
3134.00,0.0571
3133.00,0.0574
3132.00,0.0576
3131.00,0.0579
3130.00,0.0581
3129.00,0.0584
3128.00,0.0587
3127.00,0.0590
3126.00,0.0593
3125.00,0.0595
3124.00,0.0598
3123.00,0.0600
3122.00,0.0602
3121.00,0.0604
3120.00,0.0607
3119.00,0.0610
3118.00,0.0613
3117.00,0.0616
3116.00,0.0620
3115.00,0.0624
3114.00,0.0629
3113.00,0.0634
3112.00,0.0639
3111.00,0.0645
3110.00,0.0651
3109.00,0.0659
3108.00,0.0667
3107.00,0.0677
3106.00,0.0688
3105.00,0.0700
3104.00,0.0712
3103.00,0.0724
3102.00,0.0733
3101.00,0.0741
3100.00,0.0746
3099.00,0.0748
3098.00,0.0749
3097.00,0.0748
3096.00,0.0749
3095.00,0.0751
3094.00,0.0755
3093.00,0.0764
3092.00,0.0779
3091.00,0.0801
3090.00,0.0831
3089.00,0.0869
3088.00,0.0913
3087.00,0.0961
3086.00,0.1008
3085.00,0.1050
3084.00,0.1083
3083.00,0.1100
3082.00,0.1102
3081.00,0.1089
3080.00,0.1066
3079.00,0.1039
3078.00,0.1013
3077.00,0.0989
3076.00,0.0969
3075.00,0.0952
3074.00,0.0937
3073.00,0.0925
3072.00,0.0914
3071.00,0.0905
3070.00,0.0897
3069.00,0.0890
3068.00,0.0885
3067.00,0.0881
3066.00,0.0877
3065.00,0.0875
3064.00,0.0874
3063.00,0.0873
3062.00,0.0872
3061.00,0.0872
3060.00,0.0872
3059.00,0.0872
3058.00,0.0872
3057.00,0.0872
3056.00,0.0872
3055.00,0.0873
3054.00,0.0874
3053.00,0.0875
3052.00,0.0876
3051.00,0.0878
3050.00,0.0879
3049.00,0.0880
3048.00,0.0882
3047.00,0.0883
3046.00,0.0884
3045.00,0.0886
3044.00,0.0887
3043.00,0.0888
3042.00,0.0889
3041.00,0.0890
3040.00,0.0891
3039.00,0.0892
3038.00,0.0893
3037.00,0.0894
3036.00,0.0895
3035.00,0.0895
3034.00,0.0896
3033.00,0.0897
3032.00,0.0898
3031.00,0.0899
3030.00,0.0901
3029.00,0.0902
3028.00,0.0904
3027.00,0.0905
3026.00,0.0907
3025.00,0.0909
3024.00,0.0911
3023.00,0.0914
3022.00,0.0916
3021.00,0.0918
3020.00,0.0920
3019.00,0.0923
3018.00,0.0925
3017.00,0.0927
3016.00,0.0930
3015.00,0.0933
3014.00,0.0935
3013.00,0.0937
3012.00,0.0940
3011.00,0.0942
3010.00,0.0944
3009.00,0.0946
3008.00,0.0948
3007.00,0.0950
3006.00,0.0951
3005.00,0.0953
3004.00,0.0955
3003.00,0.0956
3002.00,0.0957
3001.00,0.0958
3000.00,0.0959
2999.00,0.0960
2998.00,0.0961
2997.00,0.0962
2996.00,0.0963
2995.00,0.0964
2994.00,0.0965
2993.00,0.0965
2992.00,0.0966
2991.00,0.0967
2990.00,0.0967
2989.00,0.0967
2988.00,0.0967
2987.00,0.0967
2986.00,0.0967
2985.00,0.0966
2984.00,0.0964
2983.00,0.0962
2982.00,0.0960
2981.00,0.0960
2980.00,0.0960
2979.00,0.0960
2978.00,0.0960
2977.00,0.0960
2976.00,0.0959
2975.00,0.0959
2974.00,0.0957
2973.00,0.0956
2972.00,0.0954
2971.00,0.0953
2970.00,0.0951
2969.00,0.0951
2968.00,0.0950
2967.00,0.0949
2966.00,0.0948
2965.00,0.0947
2964.00,0.0947
2963.00,0.0946
2962.00,0.0946
2961.00,0.0945
2960.00,0.0945
2959.00,0.0945
2958.00,0.0945
2957.00,0.0945
2956.00,0.0946
2955.00,0.0946
2954.00,0.0947
2953.00,0.0948
2952.00,0.0948
2951.00,0.0949
2950.00,0.0950
2949.00,0.0951
2948.00,0.0952
2947.00,0.0953
2946.00,0.0953
2945.00,0.0954
2944.00,0.0954
2943.00,0.0954
2942.00,0.0954
2941.00,0.0953
2940.00,0.0953
2939.00,0.0952
2938.00,0.0952
2937.00,0.0952
2936.00,0.0952
2935.00,0.0952
2934.00,0.0952
2933.00,0.0953
2932.00,0.0953
2931.00,0.0954
2930.00,0.0955
2929.00,0.0956
2928.00,0.0958
2927.00,0.0960
2926.00,0.0962
2925.00,0.0965
2924.00,0.0968
2923.00,0.0972
2922.00,0.0975
2921.00,0.0978
2920.00,0.0981
2919.00,0.0985
2918.00,0.0987
2917.00,0.0990
2916.00,0.0993
2915.00,0.0995
2914.00,0.0997
2913.00,0.0998
2912.00,0.0999
2911.00,0.1000
2910.00,0.1000
2909.00,0.0999
2908.00,0.0999
2907.00,0.0999
2906.00,0.0999
2905.00,0.0999
2904.00,0.0999
2903.00,0.0999
2902.00,0.0999
2901.00,0.0999
2900.00,0.0999
2899.00,0.1000
2898.00,0.1000
2897.00,0.1001
2896.00,0.1002
2895.00,0.1004
2894.00,0.1005
2893.00,0.1007
2892.00,0.1010
2891.00,0.1012
2890.00,0.1015
2889.00,0.1019
2888.00,0.1023
2887.00,0.1027
2886.00,0.1032
2885.00,0.1037
2884.00,0.1043
2883.00,0.1048
2882.00,0.1054
2881.00,0.1060
2880.00,0.1066
2879.00,0.1072
2878.00,0.1078
2877.00,0.1083
2876.00,0.1087
2875.00,0.1092
2874.00,0.1096
2873.00,0.1099
2872.00,0.1103
2871.00,0.1106
2870.00,0.1109
2869.00,0.1112
2868.00,0.1114
2867.00,0.1116
2866.00,0.1118
2865.00,0.1119
2864.00,0.1120
2863.00,0.1120
2862.00,0.1120
2861.00,0.1120
2860.00,0.1120
2859.00,0.1120
2858.00,0.1119
2857.00,0.1118
2856.00,0.1116
2855.00,0.1115
2854.00,0.1113
2853.00,0.1111
2852.00,0.1110
2851.00,0.1108
2850.00,0.1106
2849.00,0.1105
2848.00,0.1104
2847.00,0.1102
2846.00,0.1102
2845.00,0.1101
2844.00,0.1101
2843.00,0.1101
2842.00,0.1100
2841.00,0.1100
2840.00,0.1100
2839.00,0.1100
2838.00,0.1101
2837.00,0.1103
2836.00,0.1105
2835.00,0.1106
2834.00,0.1107
2833.00,0.1108
2832.00,0.1109
2831.00,0.1110
2830.00,0.1110
2829.00,0.1111
2828.00,0.1112
2827.00,0.1112
2826.00,0.1112
2825.00,0.1111
2824.00,0.1111
2823.00,0.1110
2822.00,0.1109
2821.00,0.1108
2820.00,0.1107
2819.00,0.1106
2818.00,0.1105
2817.00,0.1103
2816.00,0.1102
2815.00,0.1100
2814.00,0.1098
2813.00,0.1095
2812.00,0.1093
2811.00,0.1090
2810.00,0.1088
2809.00,0.1086
2808.00,0.1084
2807.00,0.1081
2806.00,0.1079
2805.00,0.1076
2804.00,0.1073
2803.00,0.1071
2802.00,0.1068
2801.00,0.1065
2800.00,0.1062
2799.00,0.1058
2798.00,0.1055
2797.00,0.1052
2796.00,0.1049
2795.00,0.1046
2794.00,0.1043
2793.00,0.1040
2792.00,0.1037
2791.00,0.1033
2790.00,0.1030
2789.00,0.1026
2788.00,0.1023
2787.00,0.1019
2786.00,0.1016
2785.00,0.1013
2784.00,0.1009
2783.00,0.1006
2782.00,0.1002
2781.00,0.0999
2780.00,0.0995
2779.00,0.0991
2778.00,0.0987
2777.00,0.0983
2776.00,0.0979
2775.00,0.0976
2774.00,0.0972
2773.00,0.0968
2772.00,0.0964
2771.00,0.0961
2770.00,0.0957
2769.00,0.0953
2768.00,0.0950
2767.00,0.0947
2766.00,0.0944
2765.00,0.0940
2764.00,0.0937
2763.00,0.0934
2762.00,0.0931
2761.00,0.0928
2760.00,0.0926
2759.00,0.0923
2758.00,0.0921
2757.00,0.0918
2756.00,0.0916
2755.00,0.0914
2754.00,0.0913
2753.00,0.0911
2752.00,0.0909
2751.00,0.0907
2750.00,0.0906
2749.00,0.0904
2748.00,0.0902
2747.00,0.0900
2746.00,0.0898
2745.00,0.0896
2744.00,0.0894
2743.00,0.0892
2742.00,0.0890
2741.00,0.0888
2740.00,0.0886
2739.00,0.0885
2738.00,0.0883
2737.00,0.0882
2736.00,0.0881
2735.00,0.0881
2734.00,0.0880
2733.00,0.0880
2732.00,0.0880
2731.00,0.0881
2730.00,0.0882
2729.00,0.0883
2728.00,0.0884
2727.00,0.0886
2726.00,0.0887
2725.00,0.0889
2724.00,0.0891
2723.00,0.0893
2722.00,0.0894
2721.00,0.0896
2720.00,0.0898
2719.00,0.0900
2718.00,0.0902
2717.00,0.0904
2716.00,0.0906
2715.00,0.0909
2714.00,0.0911
2713.00,0.0915
2712.00,0.0918
2711.00,0.0922
2710.00,0.0925
2709.00,0.0929
2708.00,0.0933
2707.00,0.0938
2706.00,0.0942
2705.00,0.0947
2704.00,0.0952
2703.00,0.0956
2702.00,0.0961
2701.00,0.0966
2700.00,0.0970
2699.00,0.0975
2698.00,0.0979
2697.00,0.0983
2696.00,0.0987
2695.00,0.0990
2694.00,0.0992
2693.00,0.0994
2692.00,0.0996
2691.00,0.0998
2690.00,0.0999
2689.00,0.1001
2688.00,0.1003
2687.00,0.1004
2686.00,0.1005
2685.00,0.1006
2684.00,0.1008
2683.00,0.1009
2682.00,0.1010
2681.00,0.1010
2680.00,0.1011
2679.00,0.1011
2678.00,0.1012
2677.00,0.1012
2676.00,0.1012
2675.00,0.1012
2674.00,0.1012
2673.00,0.1013
2672.00,0.1013
2671.00,0.1014
2670.00,0.1015
2669.00,0.1016
2668.00,0.1018
2667.00,0.1019
2666.00,0.1021
2665.00,0.1023
2664.00,0.1025
2663.00,0.1027
2662.00,0.1029
2661.00,0.1030
2660.00,0.1031
2659.00,0.1032
2658.00,0.1032
2657.00,0.1031
2656.00,0.1031
2655.00,0.1029
2654.00,0.1027
2653.00,0.1025
2652.00,0.1022
2651.00,0.1019
2650.00,0.1016
2649.00,0.1012
2648.00,0.1008
2647.00,0.1004
2646.00,0.1000
2645.00,0.0996
2644.00,0.0991
2643.00,0.0986
2642.00,0.0982
2641.00,0.0977
2640.00,0.0972
2639.00,0.0968
2638.00,0.0963
2637.00,0.0959
2636.00,0.0954
2635.00,0.0950
2634.00,0.0945
2633.00,0.0941
2632.00,0.0937
2631.00,0.0932
2630.00,0.0927
2629.00,0.0923
2628.00,0.0919
2627.00,0.0915
2626.00,0.0910
2625.00,0.0905
2624.00,0.0900
2623.00,0.0895
2622.00,0.0891
2621.00,0.0886
2620.00,0.0883
2619.00,0.0879
2618.00,0.0876
2617.00,0.0873
2616.00,0.0870
2615.00,0.0867
2614.00,0.0865
2613.00,0.0863
2612.00,0.0862
2611.00,0.0861
2610.00,0.0860
2609.00,0.0859
2608.00,0.0858
2607.00,0.0857
2606.00,0.0856
2605.00,0.0856
2604.00,0.0855
2603.00,0.0855
2602.00,0.0854
2601.00,0.0854
2600.00,0.0854
2599.00,0.0854
2598.00,0.0854
2597.00,0.0855
2596.00,0.0857
2595.00,0.0859
2594.00,0.0862
2593.00,0.0866
2592.00,0.0871
2591.00,0.0877
2590.00,0.0884
2589.00,0.0892
2588.00,0.0901
2587.00,0.0910
2586.00,0.0919
2585.00,0.0928
2584.00,0.0935
2583.00,0.0941
2582.00,0.0945
2581.00,0.0949
2580.00,0.0951
2579.00,0.0953
2578.00,0.0953
2577.00,0.0953
2576.00,0.0953
2575.00,0.0952
2574.00,0.0950
2573.00,0.0948
2572.00,0.0945
2571.00,0.0943
2570.00,0.0940
2569.00,0.0938
2568.00,0.0936
2567.00,0.0935
2566.00,0.0934
2565.00,0.0934
2564.00,0.0934
2563.00,0.0935
2562.00,0.0936
2561.00,0.0936
2560.00,0.0936
2559.00,0.0935
2558.00,0.0934
2557.00,0.0933
2556.00,0.0932
2555.00,0.0931
2554.00,0.0930
2553.00,0.0930
2552.00,0.0930
2551.00,0.0931
2550.00,0.0934
2549.00,0.0938
2548.00,0.0943
2547.00,0.0949
2546.00,0.0957
2545.00,0.0965
2544.00,0.0975
2543.00,0.0987
2542.00,0.0998
2541.00,0.1010
2540.00,0.1021
2539.00,0.1031
2538.00,0.1040
2537.00,0.1048
2536.00,0.1055
2535.00,0.1059
2534.00,0.1063
2533.00,0.1064
2532.00,0.1065
2531.00,0.1064
2530.00,0.1063
2529.00,0.1061
2528.00,0.1059
2527.00,0.1056
2526.00,0.1054
2525.00,0.1052
2524.00,0.1050
2523.00,0.1049
2522.00,0.1048
2521.00,0.1047
2520.00,0.1047
2519.00,0.1048
2518.00,0.1048
2517.00,0.1049
2516.00,0.1048
2515.00,0.1048
2514.00,0.1047
2513.00,0.1046
2512.00,0.1045
2511.00,0.1043
2510.00,0.1041
2509.00,0.1039
2508.00,0.1035
2507.00,0.1032
2506.00,0.1028
2505.00,0.1024
2504.00,0.1019
2503.00,0.1013
2502.00,0.1008
2501.00,0.1002
2500.00,0.0996
2499.00,0.0991
2498.00,0.0985
2497.00,0.0980
2496.00,0.0974
2495.00,0.0968
2494.00,0.0963
2493.00,0.0957
2492.00,0.0952
2491.00,0.0947
2490.00,0.0941
2489.00,0.0936
2488.00,0.0931
2487.00,0.0926
2486.00,0.0921
2485.00,0.0916
2484.00,0.0912
2483.00,0.0908
2482.00,0.0904
2481.00,0.0900
2480.00,0.0896
2479.00,0.0892
2478.00,0.0888
2477.00,0.0884
2476.00,0.0880
2475.00,0.0876
2474.00,0.0872
2473.00,0.0867
2472.00,0.0863
2471.00,0.0859
2470.00,0.0854
2469.00,0.0849
2468.00,0.0845
2467.00,0.0840
2466.00,0.0836
2465.00,0.0832
2464.00,0.0828
2463.00,0.0824
2462.00,0.0820
2461.00,0.0816
2460.00,0.0812
2459.00,0.0808
2458.00,0.0804
2457.00,0.0800
2456.00,0.0796
2455.00,0.0793
2454.00,0.0789
2453.00,0.0786
2452.00,0.0782
2451.00,0.0779
2450.00,0.0775
2449.00,0.0772
2448.00,0.0769
2447.00,0.0765
2446.00,0.0761
2445.00,0.0758
2444.00,0.0754
2443.00,0.0751
2442.00,0.0748
2441.00,0.0745
2440.00,0.0742
2439.00,0.0739
2438.00,0.0736
2437.00,0.0733
2436.00,0.0730
2435.00,0.0727
2434.00,0.0724
2433.00,0.0721
2432.00,0.0718
2431.00,0.0716
2430.00,0.0713
2429.00,0.0711
2428.00,0.0708
2427.00,0.0706
2426.00,0.0703
2425.00,0.0701
2424.00,0.0698
2423.00,0.0696
2422.00,0.0693
2421.00,0.0691
2420.00,0.0689
2419.00,0.0687
2418.00,0.0685
2417.00,0.0683
2416.00,0.0680
2415.00,0.0678
2414.00,0.0676
2413.00,0.0673
2412.00,0.0671
2411.00,0.0669
2410.00,0.0666
2409.00,0.0663
2408.00,0.0661
2407.00,0.0659
2406.00,0.0656
2405.00,0.0654
2404.00,0.0653
2403.00,0.0651
2402.00,0.0649
2401.00,0.0647
2400.00,0.0645
2399.00,0.0643
2398.00,0.0642
2397.00,0.0640
2396.00,0.0638
2395.00,0.0635
2394.00,0.0633
2393.00,0.0631
2392.00,0.0630
2391.00,0.0629
2390.00,0.0627
2389.00,0.0626
2388.00,0.0624
2387.00,0.0622
2386.00,0.0620
2385.00,0.0618
2384.00,0.0616
2383.00,0.0613
2382.00,0.0611
2381.00,0.0608
2380.00,0.0606
2379.00,0.0603
2378.00,0.0601
2377.00,0.0599
2376.00,0.0598
2375.00,0.0598
2374.00,0.0597
2373.00,0.0596
2372.00,0.0594
2371.00,0.0592
2370.00,0.0590
2369.00,0.0588
2368.00,0.0586
2367.00,0.0584
2366.00,0.0582
2365.00,0.0581
2364.00,0.0579
2363.00,0.0578
2362.00,0.0577
2361.00,0.0576
2360.00,0.0575
2359.00,0.0573
2358.00,0.0572
2357.00,0.0571
2356.00,0.0571
2355.00,0.0571
2354.00,0.0571
2353.00,0.0569
2352.00,0.0568
2351.00,0.0566
2350.00,0.0563
2349.00,0.0561
2348.00,0.0558
2347.00,0.0554
2346.00,0.0551
2345.00,0.0548
2344.00,0.0547
2343.00,0.0546
2342.00,0.0546
2341.00,0.0546
2340.00,0.0546
2339.00,0.0546
2338.00,0.0546
2337.00,0.0545
2336.00,0.0544
2335.00,0.0543
2334.00,0.0541
2333.00,0.0540
2332.00,0.0538
2331.00,0.0537
2330.00,0.0536
2329.00,0.0537
2328.00,0.0538
2327.00,0.0540
2326.00,0.0541
2325.00,0.0540
2324.00,0.0537
2323.00,0.0533
2322.00,0.0530
2321.00,0.0527
2320.00,0.0526
2319.00,0.0525
2318.00,0.0523
2317.00,0.0522
2316.00,0.0520
2315.00,0.0518
2314.00,0.0515
2313.00,0.0512
2312.00,0.0510
2311.00,0.0507
2310.00,0.0505
2309.00,0.0504
2308.00,0.0503
2307.00,0.0502
2306.00,0.0501
2305.00,0.0500
2304.00,0.0499
2303.00,0.0498
2302.00,0.0497
2301.00,0.0496
2300.00,0.0496
2299.00,0.0495
2298.00,0.0495
2297.00,0.0495
2296.00,0.0495
2295.00,0.0495
2294.00,0.0495
2293.00,0.0496
2292.00,0.0496
2291.00,0.0496
2290.00,0.0496
2289.00,0.0496
2288.00,0.0496
2287.00,0.0495
2286.00,0.0493
2285.00,0.0491
2284.00,0.0490
2283.00,0.0488
2282.00,0.0486
2281.00,0.0484
2280.00,0.0482
2279.00,0.0480
2278.00,0.0478
2277.00,0.0476
2276.00,0.0475
2275.00,0.0473
2274.00,0.0472
2273.00,0.0472
2272.00,0.0471
2271.00,0.0471
2270.00,0.0470
2269.00,0.0470
2268.00,0.0470
2267.00,0.0470
2266.00,0.0470
2265.00,0.0470
2264.00,0.0471
2263.00,0.0473
2262.00,0.0474
2261.00,0.0475
2260.00,0.0477
2259.00,0.0478
2258.00,0.0478
2257.00,0.0478
2256.00,0.0479
2255.00,0.0479
2254.00,0.0480
2253.00,0.0481
2252.00,0.0482
2251.00,0.0483
2250.00,0.0484
2249.00,0.0485
2248.00,0.0486
2247.00,0.0486
2246.00,0.0485
2245.00,0.0485
2244.00,0.0485
2243.00,0.0483
2242.00,0.0481
2241.00,0.0478
2240.00,0.0477
2239.00,0.0475
2238.00,0.0473
2237.00,0.0470
2236.00,0.0467
2235.00,0.0463
2234.00,0.0461
2233.00,0.0459
2232.00,0.0457
2231.00,0.0456
2230.00,0.0455
2229.00,0.0454
2228.00,0.0452
2227.00,0.0450
2226.00,0.0447
2225.00,0.0445
2224.00,0.0443
2223.00,0.0440
2222.00,0.0438
2221.00,0.0437
2220.00,0.0436
2219.00,0.0434
2218.00,0.0432
2217.00,0.0430
2216.00,0.0429
2215.00,0.0427
2214.00,0.0425
2213.00,0.0424
2212.00,0.0424
2211.00,0.0422
2210.00,0.0420
2209.00,0.0418
2208.00,0.0416
2207.00,0.0414
2206.00,0.0412
2205.00,0.0411
2204.00,0.0411
2203.00,0.0410
2202.00,0.0409
2201.00,0.0408
2200.00,0.0408
2199.00,0.0408
2198.00,0.0408
2197.00,0.0409
2196.00,0.0410
2195.00,0.0410
2194.00,0.0411
2193.00,0.0411
2192.00,0.0412
2191.00,0.0412
2190.00,0.0412
2189.00,0.0412
2188.00,0.0413
2187.00,0.0413
2186.00,0.0412
2185.00,0.0411
2184.00,0.0408
2183.00,0.0404
2182.00,0.0400
2181.00,0.0399
2180.00,0.0399
2179.00,0.0399
2178.00,0.0397
2177.00,0.0394
2176.00,0.0392
2175.00,0.0391
2174.00,0.0389
2173.00,0.0388
2172.00,0.0388
2171.00,0.0388
2170.00,0.0387
2169.00,0.0387
2168.00,0.0386
2167.00,0.0385
2166.00,0.0384
2165.00,0.0384
2164.00,0.0386
2163.00,0.0385
2162.00,0.0377
2161.00,0.0364
2160.00,0.0350
2159.00,0.0339
2158.00,0.0333
2157.00,0.0333
2156.00,0.0336
2155.00,0.0338
2154.00,0.0339
2153.00,0.0340
2152.00,0.0341
2151.00,0.0341
2150.00,0.0339
2149.00,0.0338
2148.00,0.0338
2147.00,0.0338
2146.00,0.0338
2145.00,0.0339
2144.00,0.0339
2143.00,0.0339
2142.00,0.0337
2141.00,0.0337
2140.00,0.0336
2139.00,0.0335
2138.00,0.0333
2137.00,0.0331
2136.00,0.0330
2135.00,0.0328
2134.00,0.0328
2133.00,0.0328
2132.00,0.0328
2131.00,0.0328
2130.00,0.0329
2129.00,0.0329
2128.00,0.0331
2127.00,0.0332
2126.00,0.0334
2125.00,0.0335
2124.00,0.0336
2123.00,0.0337
2122.00,0.0337
2121.00,0.0337
2120.00,0.0337
2119.00,0.0337
2118.00,0.0337
2117.00,0.0337
2116.00,0.0336
2115.00,0.0335
2114.00,0.0333
2113.00,0.0332
2112.00,0.0332
2111.00,0.0332
2110.00,0.0331
2109.00,0.0330
2108.00,0.0330
2107.00,0.0329
2106.00,0.0327
2105.00,0.0326
2104.00,0.0325
2103.00,0.0325
2102.00,0.0325
2101.00,0.0325
2100.00,0.0325
2099.00,0.0324
2098.00,0.0323
2097.00,0.0322
2096.00,0.0321
2095.00,0.0320
2094.00,0.0320
2093.00,0.0320
2092.00,0.0321
2091.00,0.0322
2090.00,0.0321
2089.00,0.0321
2088.00,0.0322
2087.00,0.0322
2086.00,0.0323
2085.00,0.0323
2084.00,0.0324
2083.00,0.0323
2082.00,0.0321
2081.00,0.0320
2080.00,0.0319
2079.00,0.0318
2078.00,0.0316
2077.00,0.0316
2076.00,0.0316
2075.00,0.0315
2074.00,0.0314
2073.00,0.0312
2072.00,0.0311
2071.00,0.0309
2070.00,0.0308
2069.00,0.0306
2068.00,0.0306
2067.00,0.0305
2066.00,0.0303
2065.00,0.0301
2064.00,0.0300
2063.00,0.0298
2062.00,0.0296
2061.00,0.0295
2060.00,0.0295
2059.00,0.0295
2058.00,0.0294
2057.00,0.0293
2056.00,0.0292
2055.00,0.0291
2054.00,0.0291
2053.00,0.0292
2052.00,0.0295
2051.00,0.0295
2050.00,0.0292
2049.00,0.0288
2048.00,0.0285
2047.00,0.0282
2046.00,0.0279
2045.00,0.0276
2044.00,0.0275
2043.00,0.0274
2042.00,0.0274
2041.00,0.0274
2040.00,0.0275
2039.00,0.0273
2038.00,0.0270
2037.00,0.0266
2036.00,0.0264
2035.00,0.0260
2034.00,0.0256
2033.00,0.0253
2032.00,0.0253
2031.00,0.0253
2030.00,0.0251
2029.00,0.0249
2028.00,0.0247
2027.00,0.0244
2026.00,0.0239
2025.00,0.0236
2024.00,0.0236
2023.00,0.0236
2022.00,0.0235
2021.00,0.0236
2020.00,0.0237
2019.00,0.0236
2018.00,0.0234
2017.00,0.0233
2016.00,0.0235
2015.00,0.0236
2014.00,0.0236
2013.00,0.0238
2012.00,0.0240
2011.00,0.0242
2010.00,0.0242
2009.00,0.0240
2008.00,0.0237
2007.00,0.0234
2006.00,0.0234
2005.00,0.0236
2004.00,0.0240
2003.00,0.0242
2002.00,0.0243
2001.00,0.0245
2000.00,0.0249
1999.00,0.0250
1998.00,0.0250
1997.00,0.0251
1996.00,0.0254
1995.00,0.0257
1994.00,0.0259
1993.00,0.0262
1992.00,0.0265
1991.00,0.0265
1990.00,0.0264
1989.00,0.0263
1988.00,0.0264
1987.00,0.0266
1986.00,0.0267
1985.00,0.0268
1984.00,0.0271
1983.00,0.0273
1982.00,0.0274
1981.00,0.0275
1980.00,0.0274
1979.00,0.0271
1978.00,0.0266
1977.00,0.0263
1976.00,0.0262
1975.00,0.0260
1974.00,0.0257
1973.00,0.0255
1972.00,0.0256
1971.00,0.0255
1970.00,0.0254
1969.00,0.0253
1968.00,0.0253
1967.00,0.0253
1966.00,0.0251
1965.00,0.0250
1964.00,0.0251
1963.00,0.0251
1962.00,0.0249
1961.00,0.0249
1960.00,0.0249
1959.00,0.0250
1958.00,0.0251
1957.00,0.0252
1956.00,0.0255
1955.00,0.0256
1954.00,0.0257
1953.00,0.0257
1952.00,0.0259
1951.00,0.0259
1950.00,0.0258
1949.00,0.0258
1948.00,0.0259
1947.00,0.0260
1946.00,0.0261
1945.00,0.0263
1944.00,0.0266
1943.00,0.0268
1942.00,0.0269
1941.00,0.0270
1940.00,0.0272
1939.00,0.0273
1938.00,0.0274
1937.00,0.0275
1936.00,0.0277
1935.00,0.0279
1934.00,0.0280
1933.00,0.0282
1932.00,0.0284
1931.00,0.0285
1930.00,0.0286
1929.00,0.0288
1928.00,0.0291
1927.00,0.0293
1926.00,0.0295
1925.00,0.0297
1924.00,0.0301
1923.00,0.0304
1922.00,0.0307
1921.00,0.0309
1920.00,0.0311
1919.00,0.0311
1918.00,0.0310
1917.00,0.0308
1916.00,0.0307
1915.00,0.0306
1914.00,0.0304
1913.00,0.0303
1912.00,0.0302
1911.00,0.0300
1910.00,0.0298
1909.00,0.0296
1908.00,0.0296
1907.00,0.0295
1906.00,0.0295
1905.00,0.0294
1904.00,0.0294
1903.00,0.0294
1902.00,0.0293
1901.00,0.0293
1900.00,0.0293
1899.00,0.0294
1898.00,0.0294
1897.00,0.0296
1896.00,0.0298
1895.00,0.0300
1894.00,0.0302
1893.00,0.0304
1892.00,0.0307
1891.00,0.0310
1890.00,0.0313
1889.00,0.0315
1888.00,0.0317
1887.00,0.0318
1886.00,0.0318
1885.00,0.0319
1884.00,0.0319
1883.00,0.0319
1882.00,0.0317
1881.00,0.0315
1880.00,0.0312
1879.00,0.0310
1878.00,0.0306
1877.00,0.0303
1876.00,0.0299
1875.00,0.0296
1874.00,0.0291
1873.00,0.0289
1872.00,0.0287
1871.00,0.0287
1870.00,0.0285
1869.00,0.0283
1868.00,0.0282
1867.00,0.0279
1866.00,0.0276
1865.00,0.0273
1864.00,0.0272
1863.00,0.0271
1862.00,0.0269
1861.00,0.0268
1860.00,0.0268
1859.00,0.0267
1858.00,0.0266
1857.00,0.0265
1856.00,0.0266
1855.00,0.0266
1854.00,0.0266
1853.00,0.0267
1852.00,0.0268
1851.00,0.0268
1850.00,0.0268
1849.00,0.0268
1848.00,0.0270
1847.00,0.0271
1846.00,0.0272
1845.00,0.0274
1844.00,0.0275
1843.00,0.0274
1842.00,0.0272
1841.00,0.0271
1840.00,0.0271
1839.00,0.0270
1838.00,0.0270
1837.00,0.0269
1836.00,0.0269
1835.00,0.0268
1834.00,0.0268
1833.00,0.0269
1832.00,0.0271
1831.00,0.0273
1830.00,0.0273
1829.00,0.0273
1828.00,0.0272
1827.00,0.0272
1826.00,0.0271
1825.00,0.0270
1824.00,0.0270
1823.00,0.0269
1822.00,0.0268
1821.00,0.0267
1820.00,0.0267
1819.00,0.0266
1818.00,0.0265
1817.00,0.0265
1816.00,0.0266
1815.00,0.0267
1814.00,0.0268
1813.00,0.0269
1812.00,0.0270
1811.00,0.0272
1810.00,0.0272
1809.00,0.0272
1808.00,0.0273
1807.00,0.0273
1806.00,0.0273
1805.00,0.0273
1804.00,0.0274
1803.00,0.0275
1802.00,0.0276
1801.00,0.0277
1800.00,0.0277
1799.00,0.0276
1798.00,0.0274
1797.00,0.0273
1796.00,0.0274
1795.00,0.0276
1794.00,0.0277
1793.00,0.0278
1792.00,0.0278
1791.00,0.0277
1790.00,0.0274
1789.00,0.0271
1788.00,0.0270
1787.00,0.0270
1786.00,0.0269
1785.00,0.0268
1784.00,0.0268
1783.00,0.0268
1782.00,0.0267
1781.00,0.0267
1780.00,0.0266
1779.00,0.0265
1778.00,0.0264
1777.00,0.0263
1776.00,0.0263
1775.00,0.0264
1774.00,0.0265
1773.00,0.0267
1772.00,0.0269
1771.00,0.0270
1770.00,0.0268
1769.00,0.0266
1768.00,0.0266
1767.00,0.0265
1766.00,0.0264
1765.00,0.0264
1764.00,0.0267
1763.00,0.0269
1762.00,0.0271
1761.00,0.0271
1760.00,0.0273
1759.00,0.0274
1758.00,0.0275
1757.00,0.0277
1756.00,0.0280
1755.00,0.0281
1754.00,0.0281
1753.00,0.0284
1752.00,0.0289
1751.00,0.0295
1750.00,0.0300
1749.00,0.0306
1748.00,0.0311
1747.00,0.0315
1746.00,0.0319
1745.00,0.0323
1744.00,0.0330
1743.00,0.0337
1742.00,0.0342
1741.00,0.0349
1740.00,0.0356
1739.00,0.0361
1738.00,0.0366
1737.00,0.0371
1736.00,0.0381
1735.00,0.0395
1734.00,0.0412
1733.00,0.0430
1732.00,0.0450
1731.00,0.0471
1730.00,0.0494
1729.00,0.0521
1728.00,0.0551
1727.00,0.0583
1726.00,0.0616
1725.00,0.0654
1724.00,0.0695
1723.00,0.0738
1722.00,0.0780
1721.00,0.0822
1720.00,0.0866
1719.00,0.0915
1718.00,0.0971
1717.00,0.1032
1716.00,0.1092
1715.00,0.1145
1714.00,0.1192
1713.00,0.1237
1712.00,0.1279
1711.00,0.1321
1710.00,0.1360
1709.00,0.1399
1708.00,0.1440
1707.00,0.1483
1706.00,0.1528
1705.00,0.1576
1704.00,0.1619
1703.00,0.1660
1702.00,0.1711
1701.00,0.1784
1700.00,0.1867
1699.00,0.1933
1698.00,0.1980
1697.00,0.2034
1696.00,0.2109
1695.00,0.2191
1694.00,0.2259
1693.00,0.2313
1692.00,0.2364
1691.00,0.2421
1690.00,0.2482
1689.00,0.2540
1688.00,0.2590
1687.00,0.2636
1686.00,0.2689
1685.00,0.2764
1684.00,0.2853
1683.00,0.2925
1682.00,0.2969
1681.00,0.3002
1680.00,0.3037
1679.00,0.3073
1678.00,0.3107
1677.00,0.3143
1676.00,0.3188
1675.00,0.3235
1674.00,0.3272
1673.00,0.3296
1672.00,0.3319
1671.00,0.3348
1670.00,0.3385
1669.00,0.3422
1668.00,0.3452
1667.00,0.3471
1666.00,0.3484
1665.00,0.3498
1664.00,0.3518
1663.00,0.3540
1662.00,0.3556
1661.00,0.3561
1660.00,0.3557
1659.00,0.3548
1658.00,0.3534
1657.00,0.3514
1656.00,0.3489
1655.00,0.3467
1654.00,0.3450
1653.00,0.3431
1652.00,0.3404
1651.00,0.3370
1650.00,0.3333
1649.00,0.3297
1648.00,0.3265
1647.00,0.3237
1646.00,0.3210
1645.00,0.3179
1644.00,0.3149
1643.00,0.3118
1642.00,0.3088
1641.00,0.3059
1640.00,0.3030
1639.00,0.3002
1638.00,0.2975
1637.00,0.2950
1636.00,0.2928
1635.00,0.2902
1634.00,0.2869
1633.00,0.2830
1632.00,0.2792
1631.00,0.2755
1630.00,0.2720
1629.00,0.2683
1628.00,0.2646
1627.00,0.2609
1626.00,0.2573
1625.00,0.2537
1624.00,0.2501
1623.00,0.2464
1622.00,0.2426
1621.00,0.2387
1620.00,0.2350
1619.00,0.2315
1618.00,0.2283
1617.00,0.2252
1616.00,0.2222
1615.00,0.2192
1614.00,0.2162
1613.00,0.2131
1612.00,0.2100
1611.00,0.2072
1610.00,0.2046
1609.00,0.2019
1608.00,0.1993
1607.00,0.1968
1606.00,0.1945
1605.00,0.1921
1604.00,0.1898
1603.00,0.1877
1602.00,0.1856
1601.00,0.1836
1600.00,0.1816
1599.00,0.1796
1598.00,0.1777
1597.00,0.1758
1596.00,0.1740
1595.00,0.1723
1594.00,0.1707
1593.00,0.1692
1592.00,0.1677
1591.00,0.1663
1590.00,0.1651
1589.00,0.1639
1588.00,0.1630
1587.00,0.1621
1586.00,0.1614
1585.00,0.1604
1584.00,0.1593
1583.00,0.1581
1582.00,0.1566
1581.00,0.1550
1580.00,0.1531
1579.00,0.1511
1578.00,0.1491
1577.00,0.1474
1576.00,0.1459
1575.00,0.1445
1574.00,0.1428
1573.00,0.1409
1572.00,0.1391
1571.00,0.1374
1570.00,0.1358
1569.00,0.1340
1568.00,0.1321
1567.00,0.1302
1566.00,0.1284
1565.00,0.1266
1564.00,0.1249
1563.00,0.1232
1562.00,0.1217
1561.00,0.1207
1560.00,0.1201
1559.00,0.1194
1558.00,0.1182
1557.00,0.1160
1556.00,0.1135
1555.00,0.1112
1554.00,0.1092
1553.00,0.1073
1552.00,0.1055
1551.00,0.1039
1550.00,0.1024
1549.00,0.1008
1548.00,0.0994
1547.00,0.0981
1546.00,0.0969
1545.00,0.0959
1544.00,0.0949
1543.00,0.0940
1542.00,0.0932
1541.00,0.0923
1540.00,0.0915
1539.00,0.0906
1538.00,0.0897
1537.00,0.0889
1536.00,0.0881
1535.00,0.0876
1534.00,0.0872
1533.00,0.0868
1532.00,0.0861
1531.00,0.0853
1530.00,0.0846
1529.00,0.0840
1528.00,0.0834
1527.00,0.0829
1526.00,0.0824
1525.00,0.0817
1524.00,0.0808
1523.00,0.0799
1522.00,0.0791
1521.00,0.0785
1520.00,0.0778
1519.00,0.0770
1518.00,0.0762
1517.00,0.0753
1516.00,0.0744
1515.00,0.0735
1514.00,0.0727
1513.00,0.0720
1512.00,0.0714
1511.00,0.0708
1510.00,0.0701
1509.00,0.0694
1508.00,0.0689
1507.00,0.0686
1506.00,0.0681
1505.00,0.0669
1504.00,0.0656
1503.00,0.0644
1502.00,0.0635
1501.00,0.0626
1500.00,0.0619
1499.00,0.0611
1498.00,0.0601
1497.00,0.0589
1496.00,0.0577
1495.00,0.0565
1494.00,0.0554
1493.00,0.0543
1492.00,0.0533
1491.00,0.0522
1490.00,0.0510
1489.00,0.0498
1488.00,0.0484
1487.00,0.0470
1486.00,0.0456
1485.00,0.0443
1484.00,0.0431
1483.00,0.0420
1482.00,0.0410
1481.00,0.0401
1480.00,0.0392
1479.00,0.0386
1478.00,0.0380
1477.00,0.0374
1476.00,0.0367
1475.00,0.0361
1474.00,0.0355
1473.00,0.0350
1472.00,0.0343
1471.00,0.0336
1470.00,0.0329
1469.00,0.0323
1468.00,0.0319
1467.00,0.0318
1466.00,0.0317
1465.00,0.0314
1464.00,0.0311
1463.00,0.0307
1462.00,0.0304
1461.00,0.0304
1460.00,0.0306
1459.00,0.0310
1458.00,0.0316
1457.00,0.0324
1456.00,0.0333
1455.00,0.0343
1454.00,0.0352
1453.00,0.0362
1452.00,0.0374
1451.00,0.0390
1450.00,0.0411
1449.00,0.0439
1448.00,0.0474
1447.00,0.0514
1446.00,0.0557
1445.00,0.0603
1444.00,0.0655
1443.00,0.0713
1442.00,0.0776
1441.00,0.0846
1440.00,0.0921
1439.00,0.1006
1438.00,0.1109
1437.00,0.1235
1436.00,0.1373
1435.00,0.1502
1434.00,0.1620
1433.00,0.1737
1432.00,0.1861
1431.00,0.1988
1430.00,0.2110
1429.00,0.2223
1428.00,0.2322
1427.00,0.2400
1426.00,0.2463
1425.00,0.2516
1424.00,0.2554
1423.00,0.2571
1422.00,0.2571
1421.00,0.2561
1420.00,0.2543
1419.00,0.2514
1418.00,0.2479
1417.00,0.2447
1416.00,0.2417
1415.00,0.2389
1414.00,0.2367
1413.00,0.2352
1412.00,0.2338
1411.00,0.2322
1410.00,0.2301
1409.00,0.2276
1408.00,0.2246
1407.00,0.2208
1406.00,0.2165
1405.00,0.2119
1404.00,0.2069
1403.00,0.2018
1402.00,0.1968
1401.00,0.1920
1400.00,0.1873
1399.00,0.1824
1398.00,0.1776
1397.00,0.1733
1396.00,0.1691
1395.00,0.1649
1394.00,0.1608
1393.00,0.1570
1392.00,0.1533
1391.00,0.1499
1390.00,0.1467
1389.00,0.1437
1388.00,0.1408
1387.00,0.1379
1386.00,0.1351
1385.00,0.1324
1384.00,0.1297
1383.00,0.1271
1382.00,0.1245
1381.00,0.1219
1380.00,0.1194
1379.00,0.1168
1378.00,0.1143
1377.00,0.1119
1376.00,0.1095
1375.00,0.1070
1374.00,0.1046
1373.00,0.1022
1372.00,0.0998
1371.00,0.0975
1370.00,0.0953
1369.00,0.0932
1368.00,0.0911
1367.00,0.0891
1366.00,0.0872
1365.00,0.0854
1364.00,0.0836
1363.00,0.0818
1362.00,0.0801
1361.00,0.0784
1360.00,0.0767
1359.00,0.0751
1358.00,0.0736
1357.00,0.0723
1356.00,0.0710
1355.00,0.0698
1354.00,0.0686
1353.00,0.0676
1352.00,0.0665
1351.00,0.0655
1350.00,0.0645
1349.00,0.0636
1348.00,0.0626
1347.00,0.0617
1346.00,0.0608
1345.00,0.0599
1344.00,0.0590
1343.00,0.0582
1342.00,0.0574
1341.00,0.0566
1340.00,0.0560
1339.00,0.0555
1338.00,0.0552
1337.00,0.0551
1336.00,0.0552
1335.00,0.0557
1334.00,0.0566
1333.00,0.0581
1332.00,0.0603
1331.00,0.0633
1330.00,0.0673
1329.00,0.0724
1328.00,0.0786
1327.00,0.0859
1326.00,0.0941
1325.00,0.1028
1324.00,0.1115
1323.00,0.1195
1322.00,0.1262
1321.00,0.1310
1320.00,0.1335
1319.00,0.1338
1318.00,0.1322
1317.00,0.1293
1316.00,0.1255
1315.00,0.1213
1314.00,0.1170
1313.00,0.1126
1312.00,0.1083
1311.00,0.1040
1310.00,0.0997
1309.00,0.0955
1308.00,0.0913
1307.00,0.0871
1306.00,0.0832
1305.00,0.0796
1304.00,0.0765
1303.00,0.0741
1302.00,0.0727
1301.00,0.0723
1300.00,0.0729
1299.00,0.0746
1298.00,0.0772
1297.00,0.0805
1296.00,0.0845
1295.00,0.0889
1294.00,0.0938
1293.00,0.0993
1292.00,0.1056
1291.00,0.1128
1290.00,0.1211
1289.00,0.1309
1288.00,0.1420
1287.00,0.1547
1286.00,0.1687
1285.00,0.1840
1284.00,0.2003
1283.00,0.2173
1282.00,0.2347
1281.00,0.2526
1280.00,0.2707
1279.00,0.2890
1278.00,0.3074
1277.00,0.3255
1276.00,0.3426
1275.00,0.3577
1274.00,0.3697
1273.00,0.3779
1272.00,0.3816
1271.00,0.3808
1270.00,0.3758
1269.00,0.3675
1268.00,0.3568
1267.00,0.3442
1266.00,0.3303
1265.00,0.3158
1264.00,0.3009
1263.00,0.2858
1262.00,0.2707
1261.00,0.2558
1260.00,0.2409
1259.00,0.2263
1258.00,0.2120
1257.00,0.1982
1256.00,0.1849
1255.00,0.1723
1254.00,0.1606
1253.00,0.1499
1252.00,0.1406
1251.00,0.1328
1250.00,0.1266
1249.00,0.1222
1248.00,0.1194
1247.00,0.1182
1246.00,0.1187
1245.00,0.1212
1244.00,0.1257
1243.00,0.1327
1242.00,0.1422
1241.00,0.1543
1240.00,0.1685
1239.00,0.1847
1238.00,0.2021
1237.00,0.2202
1236.00,0.2383
1235.00,0.2555
1234.00,0.2711
1233.00,0.2849
1232.00,0.2962
1231.00,0.3049
1230.00,0.3109
1229.00,0.3143
1228.00,0.3155
1227.00,0.3144
1226.00,0.3114
1225.00,0.3070
1224.00,0.3015
1223.00,0.2951
1222.00,0.2884
1221.00,0.2823
1220.00,0.2775
1219.00,0.2748
1218.00,0.2748
1217.00,0.2775
1216.00,0.2821
1215.00,0.2874
1214.00,0.2921
1213.00,0.2955
1212.00,0.2968
1211.00,0.2961
1210.00,0.2934
1209.00,0.2893
1208.00,0.2841
1207.00,0.2782
1206.00,0.2721
1205.00,0.2660
1204.00,0.2601
1203.00,0.2544
1202.00,0.2489
1201.00,0.2439
1200.00,0.2393
1199.00,0.2352
1198.00,0.2317
1197.00,0.2288
1196.00,0.2265
1195.00,0.2247
1194.00,0.2232
1193.00,0.2217
1192.00,0.2200
1191.00,0.2180
1190.00,0.2156
1189.00,0.2129
1188.00,0.2101
1187.00,0.2071
1186.00,0.2042
1185.00,0.2012
1184.00,0.1983
1183.00,0.1955
1182.00,0.1928
1181.00,0.1903
1180.00,0.1879
1179.00,0.1854
1178.00,0.1831
1177.00,0.1808
1176.00,0.1786
1175.00,0.1765
1174.00,0.1746
1173.00,0.1728
1172.00,0.1712
1171.00,0.1696
1170.00,0.1680
1169.00,0.1665
1168.00,0.1650
1167.00,0.1634
1166.00,0.1619
1165.00,0.1605
1164.00,0.1591
1163.00,0.1577
1162.00,0.1564
1161.00,0.1550
1160.00,0.1536
1159.00,0.1522
1158.00,0.1508
1157.00,0.1495
1156.00,0.1481
1155.00,0.1467
1154.00,0.1454
1153.00,0.1441
1152.00,0.1428
1151.00,0.1415
1150.00,0.1402
1149.00,0.1389
1148.00,0.1376
1147.00,0.1364
1146.00,0.1352
1145.00,0.1341
1144.00,0.1330
1143.00,0.1320
1142.00,0.1309
1141.00,0.1300
1140.00,0.1290
1139.00,0.1281
1138.00,0.1272
1137.00,0.1264
1136.00,0.1256
1135.00,0.1249
1134.00,0.1242
1133.00,0.1237
1132.00,0.1232
1131.00,0.1228
1130.00,0.1225
1129.00,0.1221
1128.00,0.1216
1127.00,0.1210
1126.00,0.1204
1125.00,0.1198
1124.00,0.1192
1123.00,0.1185
1122.00,0.1180
1121.00,0.1174
1120.00,0.1168
1119.00,0.1163
1118.00,0.1157
1117.00,0.1152
1116.00,0.1146
1115.00,0.1140
1114.00,0.1134
1113.00,0.1129
1112.00,0.1123
1111.00,0.1118
1110.00,0.1112
1109.00,0.1108
1108.00,0.1103
1107.00,0.1098
1106.00,0.1093
1105.00,0.1089
1104.00,0.1085
1103.00,0.1081
1102.00,0.1078
1101.00,0.1074
1100.00,0.1070
1099.00,0.1066
1098.00,0.1062
1097.00,0.1058
1096.00,0.1055
1095.00,0.1051
1094.00,0.1047
1093.00,0.1043
1092.00,0.1039
1091.00,0.1035
1090.00,0.1030
1089.00,0.1026
1088.00,0.1021
1087.00,0.1017
1086.00,0.1013
1085.00,0.1009
1084.00,0.1004
1083.00,0.1000
1082.00,0.0995
1081.00,0.0991
1080.00,0.0987
1079.00,0.0984
1078.00,0.0981
1077.00,0.0980
1076.00,0.0979
1075.00,0.0979
1074.00,0.0978
1073.00,0.0976
1072.00,0.0972
1071.00,0.0968
1070.00,0.0964
1069.00,0.0960
1068.00,0.0957
1067.00,0.0953
1066.00,0.0950
1065.00,0.0948
1064.00,0.0945
1063.00,0.0943
1062.00,0.0941
1061.00,0.0939
1060.00,0.0937
1059.00,0.0936
1058.00,0.0934
1057.00,0.0931
1056.00,0.0929
1055.00,0.0926
1054.00,0.0923
1053.00,0.0921
1052.00,0.0919
1051.00,0.0917
1050.00,0.0916
1049.00,0.0914
1048.00,0.0912
1047.00,0.0910
1046.00,0.0907
1045.00,0.0905
1044.00,0.0903
1043.00,0.0901
1042.00,0.0899
1041.00,0.0897
1040.00,0.0895
1039.00,0.0893
1038.00,0.0891
1037.00,0.0889
1036.00,0.0887
1035.00,0.0885
1034.00,0.0883
1033.00,0.0882
1032.00,0.0881
1031.00,0.0882
1030.00,0.0885
1029.00,0.0891
1028.00,0.0897
1027.00,0.0904
1026.00,0.0910
1025.00,0.0917
1024.00,0.0926
1023.00,0.0939
1022.00,0.0958
1021.00,0.0986
1020.00,0.1027
1019.00,0.1087
1018.00,0.1173
1017.00,0.1290
1016.00,0.1434
1015.00,0.1598
1014.00,0.1765
1013.00,0.1923
1012.00,0.2061
1011.00,0.2172
1010.00,0.2249
1009.00,0.2288
1008.00,0.2287
1007.00,0.2252
1006.00,0.2197
1005.00,0.2145
1004.00,0.2114
1003.00,0.2115
1002.00,0.2142
1001.00,0.2176
1000.00,0.2196
999.00,0.2183
998.00,0.2134
997.00,0.2054
996.00,0.1954
995.00,0.1844
994.00,0.1734
993.00,0.1631
992.00,0.1540
991.00,0.1462
990.00,0.1397
989.00,0.1344
988.00,0.1299
987.00,0.1262
986.00,0.1232
985.00,0.1208
984.00,0.1188
983.00,0.1173
982.00,0.1161
981.00,0.1151
980.00,0.1143
979.00,0.1138
978.00,0.1134
977.00,0.1132
976.00,0.1133
975.00,0.1137
974.00,0.1146
973.00,0.1159
972.00,0.1174
971.00,0.1190
970.00,0.1204
969.00,0.1215
968.00,0.1224
967.00,0.1231
966.00,0.1239
965.00,0.1249
964.00,0.1261
963.00,0.1275
962.00,0.1291
961.00,0.1309
960.00,0.1328
959.00,0.1347
958.00,0.1368
957.00,0.1389
956.00,0.1410
955.00,0.1430
954.00,0.1447
953.00,0.1460
952.00,0.1468
951.00,0.1472
950.00,0.1473
949.00,0.1476
948.00,0.1479
947.00,0.1485
946.00,0.1493
945.00,0.1503
944.00,0.1518
943.00,0.1537
942.00,0.1563
941.00,0.1596
940.00,0.1638
939.00,0.1690
938.00,0.1750
937.00,0.1818
936.00,0.1891
935.00,0.1967
934.00,0.2041
933.00,0.2110
932.00,0.2171
931.00,0.2222
930.00,0.2263
929.00,0.2296
928.00,0.2323
927.00,0.2345
926.00,0.2367
925.00,0.2389
924.00,0.2412
923.00,0.2436
922.00,0.2462
921.00,0.2490
920.00,0.2518
919.00,0.2545
918.00,0.2570
917.00,0.2592
916.00,0.2604
915.00,0.2607
914.00,0.2602
913.00,0.2599
912.00,0.2606
911.00,0.2627
910.00,0.2663
909.00,0.2711
908.00,0.2766
907.00,0.2823
906.00,0.2880
905.00,0.2936
904.00,0.2990
903.00,0.3040
902.00,0.3086
901.00,0.3129
900.00,0.3168
899.00,0.3204
898.00,0.3234
897.00,0.3261
896.00,0.3284
895.00,0.3301
894.00,0.3314
893.00,0.3322
892.00,0.3327
891.00,0.3326
890.00,0.3322
889.00,0.3315
888.00,0.3304
887.00,0.3290
886.00,0.3273
885.00,0.3253
884.00,0.3232
883.00,0.3209
882.00,0.3185
881.00,0.3162
880.00,0.3138
879.00,0.3112
878.00,0.3086
877.00,0.3060
876.00,0.3035
875.00,0.3009
874.00,0.2983
873.00,0.2958
872.00,0.2934
871.00,0.2911
870.00,0.2888
869.00,0.2867
868.00,0.2846
867.00,0.2828
866.00,0.2812
865.00,0.2799
864.00,0.2788
863.00,0.2776
862.00,0.2764
861.00,0.2751
860.00,0.2737
859.00,0.2723
858.00,0.2709
857.00,0.2696
856.00,0.2682
855.00,0.2668
854.00,0.2652
853.00,0.2634
852.00,0.2615
851.00,0.2593
850.00,0.2570
849.00,0.2548
848.00,0.2524
847.00,0.2499
846.00,0.2474
845.00,0.2448
844.00,0.2421
843.00,0.2393
842.00,0.2366
841.00,0.2340
840.00,0.2314
839.00,0.2288
838.00,0.2263
837.00,0.2238
836.00,0.2213
835.00,0.2189
834.00,0.2166
833.00,0.2144
832.00,0.2122
831.00,0.2099
830.00,0.2076
829.00,0.2053
828.00,0.2030
827.00,0.2008
826.00,0.1986
825.00,0.1965
824.00,0.1944
823.00,0.1924
822.00,0.1904
821.00,0.1885
820.00,0.1867
819.00,0.1849
818.00,0.1831
817.00,0.1813
816.00,0.1796
815.00,0.1780
814.00,0.1766
813.00,0.1755
812.00,0.1743
811.00,0.1730
810.00,0.1716
809.00,0.1700
808.00,0.1684
807.00,0.1669
806.00,0.1654
805.00,0.1640
804.00,0.1625
803.00,0.1611
802.00,0.1597
801.00,0.1583
800.00,0.1569
799.00,0.1557
798.00,0.1545
797.00,0.1535
796.00,0.1525
795.00,0.1516
794.00,0.1508
793.00,0.1501
792.00,0.1497
791.00,0.1494
790.00,0.1493
789.00,0.1496
788.00,0.1504
787.00,0.1517
786.00,0.1538
785.00,0.1569
784.00,0.1612
783.00,0.1664
782.00,0.1717
781.00,0.1754
780.00,0.1755
779.00,0.1709
778.00,0.1621
777.00,0.1512
776.00,0.1404
775.00,0.1312
774.00,0.1244
773.00,0.1196
772.00,0.1164
771.00,0.1142
770.00,0.1125
769.00,0.1111
768.00,0.1097
767.00,0.1083
766.00,0.1070
765.00,0.1057
764.00,0.1046
763.00,0.1036
762.00,0.1028
761.00,0.1020
760.00,0.1012
759.00,0.1004
758.00,0.0996
757.00,0.0987
756.00,0.0979
755.00,0.0970
754.00,0.0961
753.00,0.0954
752.00,0.0946
751.00,0.0938
750.00,0.0930
749.00,0.0922
748.00,0.0913
747.00,0.0905
746.00,0.0897
745.00,0.0889
744.00,0.0881
743.00,0.0873
742.00,0.0866
741.00,0.0859
740.00,0.0853
739.00,0.0846
738.00,0.0840
737.00,0.0834
736.00,0.0829
735.00,0.0826
734.00,0.0824
733.00,0.0824
732.00,0.0826
731.00,0.0830
730.00,0.0838
729.00,0.0848
728.00,0.0861
727.00,0.0878
726.00,0.0898
725.00,0.0920
724.00,0.0942
723.00,0.0960
722.00,0.0971
721.00,0.0972
720.00,0.0966
719.00,0.0953
718.00,0.0937
717.00,0.0921
716.00,0.0906
715.00,0.0893
714.00,0.0881
713.00,0.0869
712.00,0.0858
711.00,0.0847
710.00,0.0837
709.00,0.0828
708.00,0.0817
707.00,0.0804
706.00,0.0789
705.00,0.0772
704.00,0.0754
703.00,0.0735
702.00,0.0717
701.00,0.0700
700.00,0.0684
699.00,0.0669
698.00,0.0656
697.00,0.0643
696.00,0.0631
695.00,0.0618
694.00,0.0605
693.00,0.0592
692.00,0.0580
691.00,0.0568
690.00,0.0557
689.00,0.0548
688.00,0.0541
687.00,0.0538
686.00,0.0536
685.00,0.0534
684.00,0.0530
683.00,0.0521
682.00,0.0509
681.00,0.0496
680.00,0.0483
679.00,0.0470
678.00,0.0459
677.00,0.0449
676.00,0.0439
675.00,0.0430
674.00,0.0423
673.00,0.0418
672.00,0.0417
671.00,0.0419
670.00,0.0425
669.00,0.0433
668.00,0.0443
667.00,0.0450
666.00,0.0447
665.00,0.0439
664.00,0.0434
663.00,0.0435
662.00,0.0441
661.00,0.0454
660.00,0.0473
659.00,0.0504
658.00,0.0548
657.00,0.0614
656.00,0.0710
655.00,0.0850
654.00,0.1047
653.00,0.1306
652.00,0.1630
651.00,0.2008
650.00,0.2421
649.00,0.2853
648.00,0.3277
647.00,0.3653
646.00,0.3937
645.00,0.4109
644.00,0.4167
643.00,0.4122
642.00,0.3995
641.00,0.3821
640.00,0.3627
639.00,0.3423
638.00,0.3216
637.00,0.3017
636.00,0.2830
635.00,0.2655
634.00,0.2490
633.00,0.2337
632.00,0.2195
631.00,0.2063
630.00,0.1939
629.00,0.1826
628.00,0.1725
627.00,0.1634
626.00,0.1552
625.00,0.1478
624.00,0.1412
623.00,0.1351
622.00,0.1295
621.00,0.1243
620.00,0.1196
619.00,0.1152
618.00,0.1112
617.00,0.1075
616.00,0.1042
615.00,0.1011
614.00,0.0982
613.00,0.0954
612.00,0.0927
611.00,0.0903
610.00,0.0880
609.00,0.0860
608.00,0.0842
607.00,0.0825
606.00,0.0811
605.00,0.0800
604.00,0.0791
603.00,0.0783
602.00,0.0778
601.00,0.0776
600.00,0.0778
599.00,0.0783
598.00,0.0793
597.00,0.0808
596.00,0.0831
595.00,0.0863
594.00,0.0908
593.00,0.0969
592.00,0.1047
591.00,0.1147
590.00,0.1269
589.00,0.1420
588.00,0.1604
587.00,0.1823
586.00,0.2073
585.00,0.2346
584.00,0.2630
583.00,0.2909
582.00,0.3162
581.00,0.3377
580.00,0.3544
579.00,0.3652
578.00,0.3699
577.00,0.3698
576.00,0.3662
575.00,0.3595
574.00,0.3505
573.00,0.3406
572.00,0.3305
571.00,0.3203
570.00,0.3099
569.00,0.2997
568.00,0.2899
567.00,0.2804
566.00,0.2712
565.00,0.2625
564.00,0.2545
563.00,0.2470
562.00,0.2399
561.00,0.2332
560.00,0.2269
559.00,0.2208
558.00,0.2146
557.00,0.2087
556.00,0.2030
555.00,0.1976
554.00,0.1924
553.00,0.1876
552.00,0.1834
551.00,0.1793
550.00,0.1751
549.00,0.1712
548.00,0.1676
547.00,0.1643
546.00,0.1612
545.00,0.1580
544.00,0.1549
543.00,0.1518
542.00,0.1488
541.00,0.1461
540.00,0.1438
539.00,0.1417
538.00,0.1395
537.00,0.1371
536.00,0.1347
535.00,0.1324
534.00,0.1301
533.00,0.1278
532.00,0.1257
531.00,0.1238
530.00,0.1221
529.00,0.1206
528.00,0.1191
527.00,0.1173
526.00,0.1153
525.00,0.1133
524.00,0.1115
523.00,0.1099
522.00,0.1085
521.00,0.1073
520.00,0.1061
519.00,0.1048
518.00,0.1035
517.00,0.1022
516.00,0.1009
515.00,0.0997
514.00,0.0985
513.00,0.0973
512.00,0.0962
511.00,0.0952
510.00,0.0942
509.00,0.0934
508.00,0.0929
507.00,0.0924
506.00,0.0917
505.00,0.0906
504.00,0.0891
503.00,0.0877
502.00,0.0867
501.00,0.0862
500.00,0.0858
499.00,0.0853
498.00,0.0846
497.00,0.0837
496.00,0.0828
495.00,0.0820
494.00,0.0812
493.00,0.0805
492.00,0.0800
491.00,0.0797
490.00,0.0797
489.00,0.0795
488.00,0.0791
487.00,0.0785
486.00,0.0778
485.00,0.0772
484.00,0.0769
483.00,0.0767
482.00,0.0767
481.00,0.0767
480.00,0.0769
479.00,0.0773
478.00,0.0779
477.00,0.0786
476.00,0.0794
475.00,0.0803
474.00,0.0815
473.00,0.0830
472.00,0.0847
471.00,0.0867
470.00,0.0887
469.00,0.0908
468.00,0.0931
467.00,0.0955
466.00,0.0979
465.00,0.1005
464.00,0.1032
463.00,0.1063
462.00,0.1095
461.00,0.1128
460.00,0.1161
459.00,0.1197
458.00,0.1237
457.00,0.1280
456.00,0.1319
455.00,0.1352
454.00,0.1384
453.00,0.1419
452.00,0.1459
451.00,0.1502
450.00,0.1544
449.00,0.1583
448.00,0.1614
447.00,0.1635
446.00,0.1645
445.00,0.1651
444.00,0.1649
443.00,0.1634
442.00,0.1606
441.00,0.1570
440.00,0.1534
439.00,0.1501
438.00,0.1469
437.00,0.1437
436.00,0.1402
435.00,0.1366
434.00,0.1329
433.00,0.1295
432.00,0.1262
431.00,0.1228
430.00,0.1194
429.00,0.1162
428.00,0.1133
427.00,0.1105
426.00,0.1082
425.00,0.1063
424.00,0.1046
423.00,0.1028
422.00,0.1007
421.00,0.0985
420.00,0.0961
419.00,0.0940
418.00,0.0932
417.00,0.0933
416.00,0.0933
415.00,0.0922
414.00,0.0903
413.00,0.0885
412.00,0.0875
411.00,0.0869
410.00,0.0860
409.00,0.0844
408.00,0.0830
407.00,0.0827
406.00,0.0838
405.00,0.0854
404.00,0.0864
403.00,0.0857
402.00,0.0835
401.00,0.0805
400.00,0.0778
