Created as New Dataset,Sample 854 By YargerLab Date Saturday, April 18 2026
cm-1,A
4000.00,0.0055
3999.00,0.0055
3998.00,0.0055
3997.00,0.0056
3996.00,0.0056
3995.00,0.0056
3994.00,0.0056
3993.00,0.0056
3992.00,0.0055
3991.00,0.0055
3990.00,0.0055
3989.00,0.0055
3988.00,0.0055
3987.00,0.0055
3986.00,0.0055
3985.00,0.0055
3984.00,0.0056
3983.00,0.0056
3982.00,0.0056
3981.00,0.0055
3980.00,0.0055
3979.00,0.0055
3978.00,0.0055
3977.00,0.0055
3976.00,0.0055
3975.00,0.0055
3974.00,0.0055
3973.00,0.0055
3972.00,0.0055
3971.00,0.0055
3970.00,0.0055
3969.00,0.0055
3968.00,0.0055
3967.00,0.0054
3966.00,0.0054
3965.00,0.0054
3964.00,0.0054
3963.00,0.0054
3962.00,0.0054
3961.00,0.0054
3960.00,0.0054
3959.00,0.0054
3958.00,0.0054
3957.00,0.0054
3956.00,0.0054
3955.00,0.0054
3954.00,0.0054
3953.00,0.0053
3952.00,0.0053
3951.00,0.0053
3950.00,0.0053
3949.00,0.0053
3948.00,0.0053
3947.00,0.0053
3946.00,0.0053
3945.00,0.0053
3944.00,0.0053
3943.00,0.0053
3942.00,0.0053
3941.00,0.0053
3940.00,0.0053
3939.00,0.0053
3938.00,0.0053
3937.00,0.0053
3936.00,0.0053
3935.00,0.0053
3934.00,0.0053
3933.00,0.0053
3932.00,0.0053
3931.00,0.0053
3930.00,0.0052
3929.00,0.0053
3928.00,0.0053
3927.00,0.0053
3926.00,0.0053
3925.00,0.0052
3924.00,0.0052
3923.00,0.0052
3922.00,0.0052
3921.00,0.0052
3920.00,0.0052
3919.00,0.0052
3918.00,0.0052
3917.00,0.0052
3916.00,0.0052
3915.00,0.0052
3914.00,0.0052
3913.00,0.0052
3912.00,0.0051
3911.00,0.0052
3910.00,0.0052
3909.00,0.0052
3908.00,0.0052
3907.00,0.0052
3906.00,0.0052
3905.00,0.0052
3904.00,0.0051
3903.00,0.0051
3902.00,0.0051
3901.00,0.0051
3900.00,0.0051
3899.00,0.0050
3898.00,0.0050
3897.00,0.0050
3896.00,0.0050
3895.00,0.0050
3894.00,0.0050
3893.00,0.0051
3892.00,0.0051
3891.00,0.0050
3890.00,0.0050
3889.00,0.0051
3888.00,0.0051
3887.00,0.0051
3886.00,0.0050
3885.00,0.0050
3884.00,0.0051
3883.00,0.0051
3882.00,0.0051
3881.00,0.0051
3880.00,0.0051
3879.00,0.0051
3878.00,0.0051
3877.00,0.0051
3876.00,0.0051
3875.00,0.0051
3874.00,0.0051
3873.00,0.0051
3872.00,0.0051
3871.00,0.0051
3870.00,0.0051
3869.00,0.0051
3868.00,0.0051
3867.00,0.0051
3866.00,0.0050
3865.00,0.0050
3864.00,0.0050
3863.00,0.0050
3862.00,0.0050
3861.00,0.0050
3860.00,0.0050
3859.00,0.0050
3858.00,0.0050
3857.00,0.0050
3856.00,0.0050
3855.00,0.0050
3854.00,0.0050
3853.00,0.0050
3852.00,0.0050
3851.00,0.0050
3850.00,0.0050
3849.00,0.0050
3848.00,0.0049
3847.00,0.0049
3846.00,0.0049
3845.00,0.0049
3844.00,0.0049
3843.00,0.0049
3842.00,0.0050
3841.00,0.0050
3840.00,0.0049
3839.00,0.0049
3838.00,0.0049
3837.00,0.0049
3836.00,0.0049
3835.00,0.0049
3834.00,0.0049
3833.00,0.0050
3832.00,0.0050
3831.00,0.0050
3830.00,0.0049
3829.00,0.0049
3828.00,0.0049
3827.00,0.0049
3826.00,0.0049
3825.00,0.0049
3824.00,0.0049
3823.00,0.0049
3822.00,0.0049
3821.00,0.0050
3820.00,0.0050
3819.00,0.0050
3818.00,0.0050
3817.00,0.0049
3816.00,0.0049
3815.00,0.0049
3814.00,0.0049
3813.00,0.0049
3812.00,0.0049
3811.00,0.0048
3810.00,0.0049
3809.00,0.0049
3808.00,0.0048
3807.00,0.0048
3806.00,0.0048
3805.00,0.0048
3804.00,0.0048
3803.00,0.0048
3802.00,0.0048
3801.00,0.0048
3800.00,0.0048
3799.00,0.0048
3798.00,0.0047
3797.00,0.0047
3796.00,0.0047
3795.00,0.0047
3794.00,0.0047
3793.00,0.0047
3792.00,0.0047
3791.00,0.0047
3790.00,0.0047
3789.00,0.0048
3788.00,0.0048
3787.00,0.0048
3786.00,0.0048
3785.00,0.0048
3784.00,0.0048
3783.00,0.0048
3782.00,0.0048
3781.00,0.0048
3780.00,0.0048
3779.00,0.0048
3778.00,0.0048
3777.00,0.0048
3776.00,0.0048
3775.00,0.0048
3774.00,0.0048
3773.00,0.0048
3772.00,0.0048
3771.00,0.0048
3770.00,0.0047
3769.00,0.0047
3768.00,0.0047
3767.00,0.0047
3766.00,0.0047
3765.00,0.0047
3764.00,0.0047
3763.00,0.0047
3762.00,0.0047
3761.00,0.0047
3760.00,0.0047
3759.00,0.0047
3758.00,0.0047
3757.00,0.0047
3756.00,0.0047
3755.00,0.0047
3754.00,0.0047
3753.00,0.0047
3752.00,0.0047
3751.00,0.0047
3750.00,0.0047
3749.00,0.0046
3748.00,0.0046
3747.00,0.0046
3746.00,0.0046
3745.00,0.0046
3744.00,0.0045
3743.00,0.0045
3742.00,0.0045
3741.00,0.0045
3740.00,0.0045
3739.00,0.0045
3738.00,0.0045
3737.00,0.0045
3736.00,0.0044
3735.00,0.0044
3734.00,0.0044
3733.00,0.0043
3732.00,0.0043
3731.00,0.0044
3730.00,0.0044
3729.00,0.0044
3728.00,0.0044
3727.00,0.0044
3726.00,0.0044
3725.00,0.0044
3724.00,0.0044
3723.00,0.0044
3722.00,0.0044
3721.00,0.0044
3720.00,0.0043
3719.00,0.0043
3718.00,0.0043
3717.00,0.0043
3716.00,0.0044
3715.00,0.0044
3714.00,0.0044
3713.00,0.0043
3712.00,0.0043
3711.00,0.0043
3710.00,0.0043
3709.00,0.0043
3708.00,0.0043
3707.00,0.0043
3706.00,0.0043
3705.00,0.0043
3704.00,0.0042
3703.00,0.0042
3702.00,0.0042
3701.00,0.0042
3700.00,0.0041
3699.00,0.0041
3698.00,0.0041
3697.00,0.0041
3696.00,0.0042
3695.00,0.0042
3694.00,0.0042
3693.00,0.0042
3692.00,0.0042
3691.00,0.0041
3690.00,0.0041
3689.00,0.0041
3688.00,0.0042
3687.00,0.0042
3686.00,0.0042
3685.00,0.0042
3684.00,0.0042
3683.00,0.0041
3682.00,0.0041
3681.00,0.0041
3680.00,0.0041
3679.00,0.0041
3678.00,0.0041
3677.00,0.0041
3676.00,0.0041
3675.00,0.0040
3674.00,0.0041
3673.00,0.0041
3672.00,0.0041
3671.00,0.0041
3670.00,0.0041
3669.00,0.0041
3668.00,0.0041
3667.00,0.0040
3666.00,0.0040
3665.00,0.0040
3664.00,0.0040
3663.00,0.0039
3662.00,0.0039
3661.00,0.0039
3660.00,0.0039
3659.00,0.0039
3658.00,0.0039
3657.00,0.0039
3656.00,0.0039
3655.00,0.0039
3654.00,0.0040
3653.00,0.0040
3652.00,0.0040
3651.00,0.0039
3650.00,0.0039
3649.00,0.0039
3648.00,0.0039
3647.00,0.0039
3646.00,0.0039
3645.00,0.0039
3644.00,0.0039
3643.00,0.0040
3642.00,0.0040
3641.00,0.0039
3640.00,0.0039
3639.00,0.0039
3638.00,0.0039
3637.00,0.0039
3636.00,0.0039
3635.00,0.0039
3634.00,0.0039
3633.00,0.0040
3632.00,0.0040
3631.00,0.0040
3630.00,0.0040
3629.00,0.0040
3628.00,0.0040
3627.00,0.0040
3626.00,0.0040
3625.00,0.0040
3624.00,0.0040
3623.00,0.0040
3622.00,0.0040
3621.00,0.0041
3620.00,0.0041
3619.00,0.0041
3618.00,0.0041
3617.00,0.0041
3616.00,0.0041
3615.00,0.0041
3614.00,0.0042
3613.00,0.0042
3612.00,0.0042
3611.00,0.0042
3610.00,0.0042
3609.00,0.0042
3608.00,0.0043
3607.00,0.0043
3606.00,0.0044
3605.00,0.0044
3604.00,0.0045
3603.00,0.0045
3602.00,0.0045
3601.00,0.0045
3600.00,0.0045
3599.00,0.0046
3598.00,0.0046
3597.00,0.0046
3596.00,0.0046
3595.00,0.0047
3594.00,0.0047
3593.00,0.0047
3592.00,0.0048
3591.00,0.0048
3590.00,0.0049
3589.00,0.0049
3588.00,0.0050
3587.00,0.0051
3586.00,0.0052
3585.00,0.0052
3584.00,0.0053
3583.00,0.0054
3582.00,0.0055
3581.00,0.0056
3580.00,0.0057
3579.00,0.0058
3578.00,0.0060
3577.00,0.0061
3576.00,0.0062
3575.00,0.0064
3574.00,0.0065
3573.00,0.0067
3572.00,0.0068
3571.00,0.0069
3570.00,0.0071
3569.00,0.0072
3568.00,0.0074
3567.00,0.0075
3566.00,0.0077
3565.00,0.0079
3564.00,0.0080
3563.00,0.0082
3562.00,0.0083
3561.00,0.0085
3560.00,0.0086
3559.00,0.0088
3558.00,0.0090
3557.00,0.0093
3556.00,0.0095
3555.00,0.0097
3554.00,0.0099
3553.00,0.0102
3552.00,0.0105
3551.00,0.0108
3550.00,0.0112
3549.00,0.0116
3548.00,0.0120
3547.00,0.0126
3546.00,0.0131
3545.00,0.0137
3544.00,0.0144
3543.00,0.0152
3542.00,0.0161
3541.00,0.0171
3540.00,0.0182
3539.00,0.0194
3538.00,0.0208
3537.00,0.0224
3536.00,0.0241
3535.00,0.0261
3534.00,0.0281
3533.00,0.0304
3532.00,0.0328
3531.00,0.0354
3530.00,0.0381
3529.00,0.0409
3528.00,0.0436
3527.00,0.0462
3526.00,0.0487
3525.00,0.0509
3524.00,0.0527
3523.00,0.0540
3522.00,0.0549
3521.00,0.0553
3520.00,0.0553
3519.00,0.0548
3518.00,0.0539
3517.00,0.0527
3516.00,0.0512
3515.00,0.0496
3514.00,0.0478
3513.00,0.0460
3512.00,0.0441
3511.00,0.0423
3510.00,0.0405
3509.00,0.0387
3508.00,0.0371
3507.00,0.0357
3506.00,0.0343
3505.00,0.0331
3504.00,0.0320
3503.00,0.0310
3502.00,0.0301
3501.00,0.0293
3500.00,0.0286
3499.00,0.0280
3498.00,0.0274
3497.00,0.0270
3496.00,0.0266
3495.00,0.0263
3494.00,0.0260
3493.00,0.0258
3492.00,0.0256
3491.00,0.0255
3490.00,0.0255
3489.00,0.0254
3488.00,0.0254
3487.00,0.0254
3486.00,0.0255
3485.00,0.0255
3484.00,0.0256
3483.00,0.0258
3482.00,0.0259
3481.00,0.0261
3480.00,0.0262
3479.00,0.0264
3478.00,0.0266
3477.00,0.0267
3476.00,0.0269
3475.00,0.0271
3474.00,0.0273
3473.00,0.0275
3472.00,0.0278
3471.00,0.0280
3470.00,0.0282
3469.00,0.0284
3468.00,0.0287
3467.00,0.0290
3466.00,0.0292
3465.00,0.0295
3464.00,0.0298
3463.00,0.0301
3462.00,0.0304
3461.00,0.0307
3460.00,0.0311
3459.00,0.0315
3458.00,0.0319
3457.00,0.0323
3456.00,0.0326
3455.00,0.0330
3454.00,0.0334
3453.00,0.0338
3452.00,0.0343
3451.00,0.0348
3450.00,0.0353
3449.00,0.0359
3448.00,0.0364
3447.00,0.0370
3446.00,0.0376
3445.00,0.0382
3444.00,0.0389
3443.00,0.0396
3442.00,0.0403
3441.00,0.0410
3440.00,0.0418
3439.00,0.0425
3438.00,0.0434
3437.00,0.0442
3436.00,0.0451
3435.00,0.0460
3434.00,0.0470
3433.00,0.0479
3432.00,0.0489
3431.00,0.0499
3430.00,0.0509
3429.00,0.0519
3428.00,0.0529
3427.00,0.0539
3426.00,0.0548
3425.00,0.0556
3424.00,0.0565
3423.00,0.0572
3422.00,0.0579
3421.00,0.0586
3420.00,0.0591
3419.00,0.0596
3418.00,0.0599
3417.00,0.0602
3416.00,0.0605
3415.00,0.0607
3414.00,0.0608
3413.00,0.0609
3412.00,0.0610
3411.00,0.0611
3410.00,0.0612
3409.00,0.0613
3408.00,0.0613
3407.00,0.0614
3406.00,0.0615
3405.00,0.0617
3404.00,0.0619
3403.00,0.0621
3402.00,0.0622
3401.00,0.0623
3400.00,0.0624
3399.00,0.0624
3398.00,0.0624
3397.00,0.0624
3396.00,0.0623
3395.00,0.0622
3394.00,0.0621
3393.00,0.0619
3392.00,0.0617
3391.00,0.0615
3390.00,0.0612
3389.00,0.0608
3388.00,0.0605
3387.00,0.0601
3386.00,0.0598
3385.00,0.0595
3384.00,0.0592
3383.00,0.0588
3382.00,0.0585
3381.00,0.0582
3380.00,0.0579
3379.00,0.0577
3378.00,0.0574
3377.00,0.0571
3376.00,0.0569
3375.00,0.0566
3374.00,0.0564
3373.00,0.0562
3372.00,0.0560
3371.00,0.0559
3370.00,0.0558
3369.00,0.0556
3368.00,0.0555
3367.00,0.0553
3366.00,0.0551
3365.00,0.0550
3364.00,0.0549
3363.00,0.0548
3362.00,0.0547
3361.00,0.0547
3360.00,0.0546
3359.00,0.0545
3358.00,0.0544
3357.00,0.0543
3356.00,0.0542
3355.00,0.0542
3354.00,0.0541
3353.00,0.0541
3352.00,0.0540
3351.00,0.0539
3350.00,0.0538
3349.00,0.0537
3348.00,0.0536
3347.00,0.0535
3346.00,0.0534
3345.00,0.0532
3344.00,0.0531
3343.00,0.0530
3342.00,0.0528
3341.00,0.0527
3340.00,0.0525
3339.00,0.0524
3338.00,0.0522
3337.00,0.0520
3336.00,0.0518
3335.00,0.0516
3334.00,0.0513
3333.00,0.0511
3332.00,0.0509
3331.00,0.0507
3330.00,0.0505
3329.00,0.0504
3328.00,0.0502
3327.00,0.0500
3326.00,0.0498
3325.00,0.0496
3324.00,0.0494
3323.00,0.0492
3322.00,0.0490
3321.00,0.0488
3320.00,0.0485
3319.00,0.0483
3318.00,0.0481
3317.00,0.0479
3316.00,0.0478
3315.00,0.0476
3314.00,0.0474
3313.00,0.0473
3312.00,0.0471
3311.00,0.0470
3310.00,0.0468
3309.00,0.0467
3308.00,0.0465
3307.00,0.0464
3306.00,0.0462
3305.00,0.0460
3304.00,0.0458
3303.00,0.0457
3302.00,0.0455
3301.00,0.0454
3300.00,0.0452
3299.00,0.0451
3298.00,0.0449
3297.00,0.0448
3296.00,0.0447
3295.00,0.0446
3294.00,0.0445
3293.00,0.0444
3292.00,0.0443
3291.00,0.0441
3290.00,0.0440
3289.00,0.0438
3288.00,0.0437
3287.00,0.0436
3286.00,0.0434
3285.00,0.0433
3284.00,0.0432
3283.00,0.0431
3282.00,0.0430
3281.00,0.0429
3280.00,0.0428
3279.00,0.0427
3278.00,0.0426
3277.00,0.0425
3276.00,0.0424
3275.00,0.0423
3274.00,0.0422
3273.00,0.0421
3272.00,0.0421
3271.00,0.0419
3270.00,0.0418
3269.00,0.0417
3268.00,0.0416
3267.00,0.0414
3266.00,0.0413
3265.00,0.0413
3264.00,0.0412
3263.00,0.0411
3262.00,0.0410
3261.00,0.0409
3260.00,0.0408
3259.00,0.0407
3258.00,0.0407
3257.00,0.0406
3256.00,0.0405
3255.00,0.0404
3254.00,0.0403
3253.00,0.0402
3252.00,0.0401
3251.00,0.0400
3250.00,0.0399
3249.00,0.0398
3248.00,0.0398
3247.00,0.0397
3246.00,0.0396
3245.00,0.0395
3244.00,0.0395
3243.00,0.0394
3242.00,0.0393
3241.00,0.0392
3240.00,0.0391
3239.00,0.0390
3238.00,0.0390
3237.00,0.0389
3236.00,0.0388
3235.00,0.0388
3234.00,0.0388
3233.00,0.0387
3232.00,0.0386
3231.00,0.0386
3230.00,0.0385
3229.00,0.0384
3228.00,0.0384
3227.00,0.0384
3226.00,0.0383
3225.00,0.0383
3224.00,0.0382
3223.00,0.0382
3222.00,0.0381
3221.00,0.0381
3220.00,0.0381
3219.00,0.0381
3218.00,0.0381
3217.00,0.0381
3216.00,0.0380
3215.00,0.0380
3214.00,0.0380
3213.00,0.0380
3212.00,0.0379
3211.00,0.0379
3210.00,0.0379
3209.00,0.0379
3208.00,0.0379
3207.00,0.0378
3206.00,0.0378
3205.00,0.0378
3204.00,0.0378
3203.00,0.0378
3202.00,0.0378
3201.00,0.0379
3200.00,0.0378
3199.00,0.0378
3198.00,0.0378
3197.00,0.0378
3196.00,0.0377
3195.00,0.0377
3194.00,0.0377
3193.00,0.0377
3192.00,0.0377
3191.00,0.0377
3190.00,0.0377
3189.00,0.0377
3188.00,0.0376
3187.00,0.0376
3186.00,0.0376
3185.00,0.0375
3184.00,0.0375
3183.00,0.0375
3182.00,0.0374
3181.00,0.0374
3180.00,0.0373
3179.00,0.0373
3178.00,0.0372
3177.00,0.0371
3176.00,0.0370
3175.00,0.0370
3174.00,0.0369
3173.00,0.0368
3172.00,0.0368
3171.00,0.0367
3170.00,0.0366
3169.00,0.0365
3168.00,0.0365
3167.00,0.0363
3166.00,0.0362
3165.00,0.0361
3164.00,0.0360
3163.00,0.0359
3162.00,0.0358
3161.00,0.0357
3160.00,0.0356
3159.00,0.0355
3158.00,0.0354
3157.00,0.0353
3156.00,0.0351
3155.00,0.0350
3154.00,0.0349
3153.00,0.0348
3152.00,0.0346
3151.00,0.0345
3150.00,0.0343
3149.00,0.0342
3148.00,0.0340
3147.00,0.0339
3146.00,0.0337
3145.00,0.0336
3144.00,0.0335
3143.00,0.0333
3142.00,0.0332
3141.00,0.0331
3140.00,0.0329
3139.00,0.0328
3138.00,0.0327
3137.00,0.0325
3136.00,0.0323
3135.00,0.0321
3134.00,0.0319
3133.00,0.0317
3132.00,0.0316
3131.00,0.0314
3130.00,0.0313
3129.00,0.0311
3128.00,0.0310
3127.00,0.0308
3126.00,0.0306
3125.00,0.0305
3124.00,0.0304
3123.00,0.0302
3122.00,0.0301
3121.00,0.0299
3120.00,0.0298
3119.00,0.0296
3118.00,0.0294
3117.00,0.0292
3116.00,0.0291
3115.00,0.0289
3114.00,0.0287
3113.00,0.0285
3112.00,0.0284
3111.00,0.0282
3110.00,0.0280
3109.00,0.0279
3108.00,0.0277
3107.00,0.0275
3106.00,0.0274
3105.00,0.0272
3104.00,0.0270
3103.00,0.0269
3102.00,0.0267
3101.00,0.0265
3100.00,0.0264
3099.00,0.0262
3098.00,0.0260
3097.00,0.0258
3096.00,0.0257
3095.00,0.0255
3094.00,0.0253
3093.00,0.0252
3092.00,0.0250
3091.00,0.0249
3090.00,0.0247
3089.00,0.0245
3088.00,0.0244
3087.00,0.0242
3086.00,0.0240
3085.00,0.0239
3084.00,0.0238
3083.00,0.0236
3082.00,0.0235
3081.00,0.0233
3080.00,0.0232
3079.00,0.0231
3078.00,0.0229
3077.00,0.0227
3076.00,0.0226
3075.00,0.0224
3074.00,0.0222
3073.00,0.0220
3072.00,0.0218
3071.00,0.0217
3070.00,0.0216
3069.00,0.0214
3068.00,0.0213
3067.00,0.0211
3066.00,0.0210
3065.00,0.0208
3064.00,0.0207
3063.00,0.0206
3062.00,0.0204
3061.00,0.0203
3060.00,0.0202
3059.00,0.0200
3058.00,0.0199
3057.00,0.0197
3056.00,0.0196
3055.00,0.0194
3054.00,0.0193
3053.00,0.0192
3052.00,0.0191
3051.00,0.0190
3050.00,0.0188
3049.00,0.0187
3048.00,0.0186
3047.00,0.0184
3046.00,0.0183
3045.00,0.0182
3044.00,0.0181
3043.00,0.0180
3042.00,0.0178
3041.00,0.0177
3040.00,0.0176
3039.00,0.0175
3038.00,0.0174
3037.00,0.0172
3036.00,0.0171
3035.00,0.0170
3034.00,0.0169
3033.00,0.0168
3032.00,0.0167
3031.00,0.0166
3030.00,0.0164
3029.00,0.0163
3028.00,0.0162
3027.00,0.0162
3026.00,0.0161
3025.00,0.0161
3024.00,0.0161
3023.00,0.0162
3022.00,0.0163
3021.00,0.0164
3020.00,0.0166
3019.00,0.0170
3018.00,0.0174
3017.00,0.0179
3016.00,0.0184
3015.00,0.0188
3014.00,0.0189
3013.00,0.0188
3012.00,0.0184
3011.00,0.0178
3010.00,0.0171
3009.00,0.0166
3008.00,0.0161
3007.00,0.0157
3006.00,0.0154
3005.00,0.0151
3004.00,0.0149
3003.00,0.0147
3002.00,0.0146
3001.00,0.0145
3000.00,0.0145
2999.00,0.0145
2998.00,0.0146
2997.00,0.0148
2996.00,0.0150
2995.00,0.0154
2994.00,0.0158
2993.00,0.0164
2992.00,0.0168
2991.00,0.0171
2990.00,0.0171
2989.00,0.0168
2988.00,0.0162
2987.00,0.0156
2986.00,0.0149
2985.00,0.0143
2984.00,0.0138
2983.00,0.0133
2982.00,0.0129
2981.00,0.0127
2980.00,0.0126
2979.00,0.0126
2978.00,0.0126
2977.00,0.0126
2976.00,0.0127
2975.00,0.0127
2974.00,0.0128
2973.00,0.0129
2972.00,0.0130
2971.00,0.0132
2970.00,0.0136
2969.00,0.0141
2968.00,0.0147
2967.00,0.0154
2966.00,0.0163
2965.00,0.0172
2964.00,0.0183
2963.00,0.0193
2962.00,0.0201
2961.00,0.0207
2960.00,0.0209
2959.00,0.0209
2958.00,0.0206
2957.00,0.0201
2956.00,0.0194
2955.00,0.0187
2954.00,0.0180
2953.00,0.0174
2952.00,0.0169
2951.00,0.0165
2950.00,0.0163
2949.00,0.0161
2948.00,0.0161
2947.00,0.0163
2946.00,0.0168
2945.00,0.0175
2944.00,0.0186
2943.00,0.0199
2942.00,0.0213
2941.00,0.0226
2940.00,0.0235
2939.00,0.0240
2938.00,0.0242
2937.00,0.0242
2936.00,0.0241
2935.00,0.0241
2934.00,0.0240
2933.00,0.0238
2932.00,0.0233
2931.00,0.0227
2930.00,0.0219
2929.00,0.0212
2928.00,0.0205
2927.00,0.0199
2926.00,0.0195
2925.00,0.0192
2924.00,0.0189
2923.00,0.0187
2922.00,0.0185
2921.00,0.0183
2920.00,0.0180
2919.00,0.0177
2918.00,0.0175
2917.00,0.0172
2916.00,0.0171
2915.00,0.0171
2914.00,0.0172
2913.00,0.0174
2912.00,0.0178
2911.00,0.0184
2910.00,0.0192
2909.00,0.0203
2908.00,0.0216
2907.00,0.0232
2906.00,0.0251
2905.00,0.0272
2904.00,0.0293
2903.00,0.0312
2902.00,0.0327
2901.00,0.0334
2900.00,0.0334
2899.00,0.0325
2898.00,0.0310
2897.00,0.0293
2896.00,0.0274
2895.00,0.0258
2894.00,0.0244
2893.00,0.0233
2892.00,0.0225
2891.00,0.0219
2890.00,0.0215
2889.00,0.0211
2888.00,0.0207
2887.00,0.0204
2886.00,0.0201
2885.00,0.0198
2884.00,0.0194
2883.00,0.0191
2882.00,0.0187
2881.00,0.0184
2880.00,0.0180
2879.00,0.0177
2878.00,0.0173
2877.00,0.0170
2876.00,0.0167
2875.00,0.0165
2874.00,0.0162
2873.00,0.0160
2872.00,0.0158
2871.00,0.0157
2870.00,0.0156
2869.00,0.0154
2868.00,0.0153
2867.00,0.0152
2866.00,0.0151
2865.00,0.0150
2864.00,0.0149
2863.00,0.0149
2862.00,0.0148
2861.00,0.0147
2860.00,0.0147
2859.00,0.0146
2858.00,0.0146
2857.00,0.0145
2856.00,0.0145
2855.00,0.0144
2854.00,0.0144
2853.00,0.0143
2852.00,0.0142
2851.00,0.0142
2850.00,0.0141
2849.00,0.0141
2848.00,0.0141
2847.00,0.0141
2846.00,0.0141
2845.00,0.0141
2844.00,0.0141
2843.00,0.0141
2842.00,0.0141
2841.00,0.0140
2840.00,0.0140
2839.00,0.0139
2838.00,0.0139
2837.00,0.0139
2836.00,0.0138
2835.00,0.0138
2834.00,0.0138
2833.00,0.0138
2832.00,0.0137
2831.00,0.0137
2830.00,0.0137
2829.00,0.0137
2828.00,0.0137
2827.00,0.0137
2826.00,0.0137
2825.00,0.0136
2824.00,0.0136
2823.00,0.0136
2822.00,0.0136
2821.00,0.0136
2820.00,0.0135
2819.00,0.0135
2818.00,0.0135
2817.00,0.0135
2816.00,0.0134
2815.00,0.0134
2814.00,0.0134
2813.00,0.0133
2812.00,0.0133
2811.00,0.0133
2810.00,0.0132
2809.00,0.0132
2808.00,0.0131
2807.00,0.0131
2806.00,0.0131
2805.00,0.0130
2804.00,0.0130
2803.00,0.0130
2802.00,0.0129
2801.00,0.0128
2800.00,0.0128
2799.00,0.0127
2798.00,0.0126
2797.00,0.0126
2796.00,0.0126
2795.00,0.0125
2794.00,0.0125
2793.00,0.0124
2792.00,0.0123
2791.00,0.0123
2790.00,0.0122
2789.00,0.0122
2788.00,0.0121
2787.00,0.0121
2786.00,0.0121
2785.00,0.0120
2784.00,0.0120
2783.00,0.0119
2782.00,0.0119
2781.00,0.0119
2780.00,0.0119
2779.00,0.0118
2778.00,0.0118
2777.00,0.0118
2776.00,0.0117
2775.00,0.0117
2774.00,0.0117
2773.00,0.0117
2772.00,0.0117
2771.00,0.0117
2770.00,0.0117
2769.00,0.0116
2768.00,0.0116
2767.00,0.0116
2766.00,0.0116
2765.00,0.0116
2764.00,0.0116
2763.00,0.0116
2762.00,0.0116
2761.00,0.0116
2760.00,0.0116
2759.00,0.0116
2758.00,0.0116
2757.00,0.0116
2756.00,0.0116
2755.00,0.0116
2754.00,0.0116
2753.00,0.0116
2752.00,0.0116
2751.00,0.0115
2750.00,0.0115
2749.00,0.0115
2748.00,0.0115
2747.00,0.0115
2746.00,0.0115
2745.00,0.0115
2744.00,0.0115
2743.00,0.0115
2742.00,0.0115
2741.00,0.0115
2740.00,0.0115
2739.00,0.0115
2738.00,0.0115
2737.00,0.0115
2736.00,0.0115
2735.00,0.0115
2734.00,0.0115
2733.00,0.0115
2732.00,0.0115
2731.00,0.0115
2730.00,0.0115
2729.00,0.0115
2728.00,0.0114
2727.00,0.0114
2726.00,0.0114
2725.00,0.0114
2724.00,0.0114
2723.00,0.0114
2722.00,0.0113
2721.00,0.0113
2720.00,0.0113
2719.00,0.0113
2718.00,0.0113
2717.00,0.0112
2716.00,0.0112
2715.00,0.0112
2714.00,0.0112
2713.00,0.0111
2712.00,0.0112
2711.00,0.0112
2710.00,0.0112
2709.00,0.0112
2708.00,0.0112
2707.00,0.0112
2706.00,0.0112
2705.00,0.0113
2704.00,0.0113
2703.00,0.0113
2702.00,0.0113
2701.00,0.0114
2700.00,0.0114
2699.00,0.0115
2698.00,0.0115
2697.00,0.0115
2696.00,0.0116
2695.00,0.0116
2694.00,0.0116
2693.00,0.0116
2692.00,0.0116
2691.00,0.0117
2690.00,0.0117
2689.00,0.0117
2688.00,0.0117
2687.00,0.0117
2686.00,0.0118
2685.00,0.0118
2684.00,0.0118
2683.00,0.0118
2682.00,0.0118
2681.00,0.0117
2680.00,0.0117
2679.00,0.0117
2678.00,0.0117
2677.00,0.0117
2676.00,0.0117
2675.00,0.0117
2674.00,0.0117
2673.00,0.0117
2672.00,0.0117
2671.00,0.0117
2670.00,0.0117
2669.00,0.0117
2668.00,0.0116
2667.00,0.0117
2666.00,0.0117
2665.00,0.0117
2664.00,0.0118
2663.00,0.0118
2662.00,0.0118
2661.00,0.0118
2660.00,0.0119
2659.00,0.0119
2658.00,0.0119
2657.00,0.0119
2656.00,0.0119
2655.00,0.0119
2654.00,0.0119
2653.00,0.0118
2652.00,0.0118
2651.00,0.0118
2650.00,0.0118
2649.00,0.0118
2648.00,0.0117
2647.00,0.0117
2646.00,0.0117
2645.00,0.0117
2644.00,0.0117
2643.00,0.0117
2642.00,0.0117
2641.00,0.0116
2640.00,0.0116
2639.00,0.0116
2638.00,0.0116
2637.00,0.0116
2636.00,0.0116
2635.00,0.0116
2634.00,0.0116
2633.00,0.0115
2632.00,0.0115
2631.00,0.0115
2630.00,0.0114
2629.00,0.0114
2628.00,0.0114
2627.00,0.0113
2626.00,0.0113
2625.00,0.0113
2624.00,0.0113
2623.00,0.0112
2622.00,0.0113
2621.00,0.0113
2620.00,0.0112
2619.00,0.0112
2618.00,0.0112
2617.00,0.0111
2616.00,0.0111
2615.00,0.0111
2614.00,0.0110
2613.00,0.0110
2612.00,0.0109
2611.00,0.0109
2610.00,0.0108
2609.00,0.0108
2608.00,0.0107
2607.00,0.0107
2606.00,0.0106
2605.00,0.0106
2604.00,0.0105
2603.00,0.0105
2602.00,0.0105
2601.00,0.0104
2600.00,0.0104
2599.00,0.0103
2598.00,0.0103
2597.00,0.0103
2596.00,0.0103
2595.00,0.0103
2594.00,0.0103
2593.00,0.0102
2592.00,0.0102
2591.00,0.0102
2590.00,0.0102
2589.00,0.0101
2588.00,0.0101
2587.00,0.0101
2586.00,0.0101
2585.00,0.0100
2584.00,0.0100
2583.00,0.0100
2582.00,0.0100
2581.00,0.0100
2580.00,0.0100
2579.00,0.0100
2578.00,0.0100
2577.00,0.0100
2576.00,0.0100
2575.00,0.0101
2574.00,0.0101
2573.00,0.0101
2572.00,0.0101
2571.00,0.0100
2570.00,0.0100
2569.00,0.0100
2568.00,0.0100
2567.00,0.0100
2566.00,0.0100
2565.00,0.0099
2564.00,0.0099
2563.00,0.0099
2562.00,0.0099
2561.00,0.0099
2560.00,0.0099
2559.00,0.0098
2558.00,0.0098
2557.00,0.0098
2556.00,0.0098
2555.00,0.0098
2554.00,0.0098
2553.00,0.0098
2552.00,0.0098
2551.00,0.0097
2550.00,0.0097
2549.00,0.0097
2548.00,0.0097
2547.00,0.0097
2546.00,0.0097
2545.00,0.0097
2544.00,0.0097
2543.00,0.0096
2542.00,0.0096
2541.00,0.0096
2540.00,0.0096
2539.00,0.0096
2538.00,0.0095
2537.00,0.0095
2536.00,0.0095
2535.00,0.0095
2534.00,0.0095
2533.00,0.0095
2532.00,0.0095
2531.00,0.0095
2530.00,0.0096
2529.00,0.0096
2528.00,0.0096
2527.00,0.0095
2526.00,0.0095
2525.00,0.0095
2524.00,0.0095
2523.00,0.0094
2522.00,0.0094
2521.00,0.0094
2520.00,0.0093
2519.00,0.0093
2518.00,0.0093
2517.00,0.0093
2516.00,0.0093
2515.00,0.0093
2514.00,0.0093
2513.00,0.0092
2512.00,0.0092
2511.00,0.0092
2510.00,0.0091
2509.00,0.0091
2508.00,0.0091
2507.00,0.0091
2506.00,0.0090
2505.00,0.0090
2504.00,0.0090
2503.00,0.0090
2502.00,0.0090
2501.00,0.0090
2500.00,0.0090
2499.00,0.0090
2498.00,0.0090
2497.00,0.0090
2496.00,0.0090
2495.00,0.0090
2494.00,0.0090
2493.00,0.0090
2492.00,0.0090
2491.00,0.0089
2490.00,0.0089
2489.00,0.0089
2488.00,0.0088
2487.00,0.0088
2486.00,0.0089
2485.00,0.0089
2484.00,0.0089
2483.00,0.0089
2482.00,0.0090
2481.00,0.0090
2480.00,0.0090
2479.00,0.0090
2478.00,0.0090
2477.00,0.0090
2476.00,0.0090
2475.00,0.0090
2474.00,0.0090
2473.00,0.0089
2472.00,0.0089
2471.00,0.0089
2470.00,0.0088
2469.00,0.0088
2468.00,0.0088
2467.00,0.0089
2466.00,0.0089
2465.00,0.0089
2464.00,0.0089
2463.00,0.0089
2462.00,0.0089
2461.00,0.0090
2460.00,0.0089
2459.00,0.0089
2458.00,0.0089
2457.00,0.0089
2456.00,0.0089
2455.00,0.0089
2454.00,0.0088
2453.00,0.0088
2452.00,0.0088
2451.00,0.0088
2450.00,0.0088
2449.00,0.0088
2448.00,0.0087
2447.00,0.0087
2446.00,0.0087
2445.00,0.0087
2444.00,0.0086
2443.00,0.0086
2442.00,0.0085
2441.00,0.0085
2440.00,0.0085
2439.00,0.0085
2438.00,0.0084
2437.00,0.0084
2436.00,0.0084
2435.00,0.0084
2434.00,0.0083
2433.00,0.0083
2432.00,0.0083
2431.00,0.0082
2430.00,0.0081
2429.00,0.0081
2428.00,0.0080
2427.00,0.0080
2426.00,0.0080
2425.00,0.0080
2424.00,0.0080
2423.00,0.0080
2422.00,0.0079
2421.00,0.0079
2420.00,0.0079
2419.00,0.0079
2418.00,0.0079
2417.00,0.0079
2416.00,0.0079
2415.00,0.0079
2414.00,0.0079
2413.00,0.0078
2412.00,0.0078
2411.00,0.0078
2410.00,0.0077
2409.00,0.0077
2408.00,0.0076
2407.00,0.0076
2406.00,0.0076
2405.00,0.0076
2404.00,0.0076
2403.00,0.0075
2402.00,0.0075
2401.00,0.0074
2400.00,0.0074
2399.00,0.0074
2398.00,0.0074
2397.00,0.0075
2396.00,0.0075
2395.00,0.0075
2394.00,0.0076
2393.00,0.0075
2392.00,0.0075
2391.00,0.0075
2390.00,0.0075
2389.00,0.0075
2388.00,0.0074
2387.00,0.0074
2386.00,0.0073
2385.00,0.0072
2384.00,0.0071
2383.00,0.0070
2382.00,0.0069
2381.00,0.0069
2380.00,0.0069
2379.00,0.0069
2378.00,0.0069
2377.00,0.0068
2376.00,0.0068
2375.00,0.0068
2374.00,0.0068
2373.00,0.0068
2372.00,0.0067
2371.00,0.0067
2370.00,0.0067
2369.00,0.0066
2368.00,0.0066
2367.00,0.0065
2366.00,0.0065
2365.00,0.0065
2364.00,0.0065
2363.00,0.0065
2362.00,0.0066
2361.00,0.0066
2360.00,0.0066
2359.00,0.0066
2358.00,0.0066
2357.00,0.0066
2356.00,0.0066
2355.00,0.0066
2354.00,0.0067
2353.00,0.0066
2352.00,0.0066
2351.00,0.0066
2350.00,0.0066
2349.00,0.0066
2348.00,0.0067
2347.00,0.0067
2346.00,0.0067
2345.00,0.0067
2344.00,0.0067
2343.00,0.0067
2342.00,0.0067
2341.00,0.0067
2340.00,0.0068
2339.00,0.0069
2338.00,0.0069
2337.00,0.0069
2336.00,0.0069
2335.00,0.0069
2334.00,0.0069
2333.00,0.0069
2332.00,0.0069
2331.00,0.0070
2330.00,0.0070
2329.00,0.0072
2328.00,0.0075
2327.00,0.0078
2326.00,0.0081
2325.00,0.0082
2324.00,0.0081
2323.00,0.0079
2322.00,0.0078
2321.00,0.0076
2320.00,0.0075
2319.00,0.0075
2318.00,0.0074
2317.00,0.0074
2316.00,0.0074
2315.00,0.0073
2314.00,0.0073
2313.00,0.0073
2312.00,0.0072
2311.00,0.0071
2310.00,0.0071
2309.00,0.0071
2308.00,0.0071
2307.00,0.0071
2306.00,0.0071
2305.00,0.0072
2304.00,0.0072
2303.00,0.0072
2302.00,0.0072
2301.00,0.0072
2300.00,0.0072
2299.00,0.0072
2298.00,0.0073
2297.00,0.0074
2296.00,0.0075
2295.00,0.0076
2294.00,0.0076
2293.00,0.0077
2292.00,0.0078
2291.00,0.0078
2290.00,0.0079
2289.00,0.0080
2288.00,0.0081
2287.00,0.0081
2286.00,0.0082
2285.00,0.0082
2284.00,0.0081
2283.00,0.0080
2282.00,0.0079
2281.00,0.0078
2280.00,0.0077
2279.00,0.0077
2278.00,0.0076
2277.00,0.0076
2276.00,0.0076
2275.00,0.0076
2274.00,0.0076
2273.00,0.0076
2272.00,0.0075
2271.00,0.0075
2270.00,0.0075
2269.00,0.0074
2268.00,0.0074
2267.00,0.0072
2266.00,0.0071
2265.00,0.0071
2264.00,0.0071
2263.00,0.0071
2262.00,0.0072
2261.00,0.0072
2260.00,0.0073
2259.00,0.0073
2258.00,0.0073
2257.00,0.0072
2256.00,0.0071
2255.00,0.0070
2254.00,0.0069
2253.00,0.0069
2252.00,0.0069
2251.00,0.0070
2250.00,0.0071
2249.00,0.0071
2248.00,0.0072
2247.00,0.0072
2246.00,0.0072
2245.00,0.0071
2244.00,0.0070
2243.00,0.0070
2242.00,0.0070
2241.00,0.0070
2240.00,0.0070
2239.00,0.0071
2238.00,0.0071
2237.00,0.0071
2236.00,0.0071
2235.00,0.0071
2234.00,0.0070
2233.00,0.0070
2232.00,0.0070
2231.00,0.0069
2230.00,0.0069
2229.00,0.0069
2228.00,0.0070
2227.00,0.0070
2226.00,0.0070
2225.00,0.0070
2224.00,0.0071
2223.00,0.0071
2222.00,0.0071
2221.00,0.0070
2220.00,0.0070
2219.00,0.0070
2218.00,0.0071
2217.00,0.0070
2216.00,0.0069
2215.00,0.0068
2214.00,0.0068
2213.00,0.0068
2212.00,0.0068
2211.00,0.0069
2210.00,0.0069
2209.00,0.0068
2208.00,0.0067
2207.00,0.0066
2206.00,0.0066
2205.00,0.0066
2204.00,0.0067
2203.00,0.0068
2202.00,0.0068
2201.00,0.0068
2200.00,0.0067
2199.00,0.0066
2198.00,0.0065
2197.00,0.0065
2196.00,0.0066
2195.00,0.0066
2194.00,0.0067
2193.00,0.0067
2192.00,0.0067
2191.00,0.0066
2190.00,0.0066
2189.00,0.0066
2188.00,0.0066
2187.00,0.0065
2186.00,0.0065
2185.00,0.0064
2184.00,0.0062
2183.00,0.0061
2182.00,0.0059
2181.00,0.0059
2180.00,0.0060
2179.00,0.0060
2178.00,0.0060
2177.00,0.0059
2176.00,0.0058
2175.00,0.0059
2174.00,0.0061
2173.00,0.0063
2172.00,0.0065
2171.00,0.0067
2170.00,0.0068
2169.00,0.0069
2168.00,0.0071
2167.00,0.0073
2166.00,0.0074
2165.00,0.0075
2164.00,0.0076
2163.00,0.0075
2162.00,0.0068
2161.00,0.0056
2160.00,0.0042
2159.00,0.0029
2158.00,0.0023
2157.00,0.0022
2156.00,0.0024
2155.00,0.0029
2154.00,0.0033
2153.00,0.0037
2152.00,0.0039
2151.00,0.0040
2150.00,0.0040
2149.00,0.0040
2148.00,0.0040
2147.00,0.0041
2146.00,0.0042
2145.00,0.0043
2144.00,0.0044
2143.00,0.0044
2142.00,0.0045
2141.00,0.0045
2140.00,0.0046
2139.00,0.0047
2138.00,0.0046
2137.00,0.0044
2136.00,0.0042
2135.00,0.0040
2134.00,0.0040
2133.00,0.0041
2132.00,0.0042
2131.00,0.0044
2130.00,0.0045
2129.00,0.0046
2128.00,0.0048
2127.00,0.0050
2126.00,0.0051
2125.00,0.0053
2124.00,0.0054
2123.00,0.0055
2122.00,0.0056
2121.00,0.0057
2120.00,0.0057
2119.00,0.0058
2118.00,0.0060
2117.00,0.0061
2116.00,0.0063
2115.00,0.0063
2114.00,0.0063
2113.00,0.0063
2112.00,0.0063
2111.00,0.0063
2110.00,0.0062
2109.00,0.0061
2108.00,0.0060
2107.00,0.0060
2106.00,0.0061
2105.00,0.0061
2104.00,0.0061
2103.00,0.0061
2102.00,0.0060
2101.00,0.0060
2100.00,0.0060
2099.00,0.0059
2098.00,0.0058
2097.00,0.0056
2096.00,0.0054
2095.00,0.0053
2094.00,0.0052
2093.00,0.0052
2092.00,0.0053
2091.00,0.0054
2090.00,0.0055
2089.00,0.0056
2088.00,0.0056
2087.00,0.0056
2086.00,0.0057
2085.00,0.0057
2084.00,0.0058
2083.00,0.0058
2082.00,0.0059
2081.00,0.0059
2080.00,0.0059
2079.00,0.0059
2078.00,0.0058
2077.00,0.0058
2076.00,0.0057
2075.00,0.0057
2074.00,0.0056
2073.00,0.0055
2072.00,0.0055
2071.00,0.0055
2070.00,0.0055
2069.00,0.0055
2068.00,0.0055
2067.00,0.0055
2066.00,0.0055
2065.00,0.0055
2064.00,0.0055
2063.00,0.0056
2062.00,0.0055
2061.00,0.0055
2060.00,0.0055
2059.00,0.0056
2058.00,0.0056
2057.00,0.0057
2056.00,0.0057
2055.00,0.0057
2054.00,0.0060
2053.00,0.0064
2052.00,0.0067
2051.00,0.0067
2050.00,0.0064
2049.00,0.0061
2048.00,0.0058
2047.00,0.0057
2046.00,0.0057
2045.00,0.0057
2044.00,0.0057
2043.00,0.0057
2042.00,0.0057
2041.00,0.0056
2040.00,0.0056
2039.00,0.0057
2038.00,0.0057
2037.00,0.0057
2036.00,0.0057
2035.00,0.0056
2034.00,0.0054
2033.00,0.0052
2032.00,0.0051
2031.00,0.0050
2030.00,0.0050
2029.00,0.0049
2028.00,0.0047
2027.00,0.0046
2026.00,0.0045
2025.00,0.0045
2024.00,0.0047
2023.00,0.0049
2022.00,0.0051
2021.00,0.0052
2020.00,0.0053
2019.00,0.0053
2018.00,0.0053
2017.00,0.0053
2016.00,0.0053
2015.00,0.0054
2014.00,0.0054
2013.00,0.0055
2012.00,0.0055
2011.00,0.0054
2010.00,0.0053
2009.00,0.0052
2008.00,0.0050
2007.00,0.0049
2006.00,0.0048
2005.00,0.0049
2004.00,0.0050
2003.00,0.0050
2002.00,0.0050
2001.00,0.0050
2000.00,0.0051
1999.00,0.0051
1998.00,0.0051
1997.00,0.0052
1996.00,0.0053
1995.00,0.0054
1994.00,0.0055
1993.00,0.0056
1992.00,0.0058
1991.00,0.0060
1990.00,0.0061
1989.00,0.0062
1988.00,0.0062
1987.00,0.0061
1986.00,0.0061
1985.00,0.0062
1984.00,0.0064
1983.00,0.0066
1982.00,0.0068
1981.00,0.0068
1980.00,0.0064
1979.00,0.0058
1978.00,0.0052
1977.00,0.0048
1976.00,0.0047
1975.00,0.0047
1974.00,0.0048
1973.00,0.0049
1972.00,0.0050
1971.00,0.0050
1970.00,0.0050
1969.00,0.0049
1968.00,0.0047
1967.00,0.0045
1966.00,0.0044
1965.00,0.0042
1964.00,0.0041
1963.00,0.0039
1962.00,0.0037
1961.00,0.0035
1960.00,0.0034
1959.00,0.0034
1958.00,0.0035
1957.00,0.0036
1956.00,0.0037
1955.00,0.0038
1954.00,0.0038
1953.00,0.0039
1952.00,0.0038
1951.00,0.0038
1950.00,0.0038
1949.00,0.0039
1948.00,0.0040
1947.00,0.0041
1946.00,0.0041
1945.00,0.0041
1944.00,0.0041
1943.00,0.0042
1942.00,0.0043
1941.00,0.0044
1940.00,0.0045
1939.00,0.0045
1938.00,0.0045
1937.00,0.0045
1936.00,0.0046
1935.00,0.0046
1934.00,0.0047
1933.00,0.0048
1932.00,0.0049
1931.00,0.0049
1930.00,0.0049
1929.00,0.0049
1928.00,0.0049
1927.00,0.0049
1926.00,0.0049
1925.00,0.0050
1924.00,0.0050
1923.00,0.0051
1922.00,0.0052
1921.00,0.0052
1920.00,0.0053
1919.00,0.0053
1918.00,0.0053
1917.00,0.0053
1916.00,0.0053
1915.00,0.0054
1914.00,0.0055
1913.00,0.0056
1912.00,0.0056
1911.00,0.0056
1910.00,0.0056
1909.00,0.0056
1908.00,0.0056
1907.00,0.0057
1906.00,0.0058
1905.00,0.0058
1904.00,0.0059
1903.00,0.0059
1902.00,0.0059
1901.00,0.0059
1900.00,0.0058
1899.00,0.0057
1898.00,0.0057
1897.00,0.0057
1896.00,0.0057
1895.00,0.0057
1894.00,0.0057
1893.00,0.0057
1892.00,0.0057
1891.00,0.0057
1890.00,0.0058
1889.00,0.0058
1888.00,0.0058
1887.00,0.0058
1886.00,0.0059
1885.00,0.0059
1884.00,0.0059
1883.00,0.0059
1882.00,0.0058
1881.00,0.0058
1880.00,0.0057
1879.00,0.0057
1878.00,0.0058
1877.00,0.0058
1876.00,0.0058
1875.00,0.0058
1874.00,0.0058
1873.00,0.0058
1872.00,0.0059
1871.00,0.0059
1870.00,0.0059
1869.00,0.0058
1868.00,0.0058
1867.00,0.0058
1866.00,0.0059
1865.00,0.0059
1864.00,0.0059
1863.00,0.0059
1862.00,0.0058
1861.00,0.0058
1860.00,0.0058
1859.00,0.0058
1858.00,0.0058
1857.00,0.0058
1856.00,0.0058
1855.00,0.0058
1854.00,0.0058
1853.00,0.0058
1852.00,0.0058
1851.00,0.0058
1850.00,0.0058
1849.00,0.0058
1848.00,0.0057
1847.00,0.0057
1846.00,0.0057
1845.00,0.0057
1844.00,0.0058
1843.00,0.0057
1842.00,0.0057
1841.00,0.0057
1840.00,0.0057
1839.00,0.0057
1838.00,0.0056
1837.00,0.0056
1836.00,0.0056
1835.00,0.0056
1834.00,0.0057
1833.00,0.0057
1832.00,0.0057
1831.00,0.0057
1830.00,0.0057
1829.00,0.0057
1828.00,0.0056
1827.00,0.0056
1826.00,0.0056
1825.00,0.0056
1824.00,0.0056
1823.00,0.0056
1822.00,0.0056
1821.00,0.0056
1820.00,0.0055
1819.00,0.0054
1818.00,0.0053
1817.00,0.0053
1816.00,0.0053
1815.00,0.0054
1814.00,0.0055
1813.00,0.0056
1812.00,0.0056
1811.00,0.0057
1810.00,0.0057
1809.00,0.0057
1808.00,0.0058
1807.00,0.0058
1806.00,0.0058
1805.00,0.0058
1804.00,0.0058
1803.00,0.0058
1802.00,0.0058
1801.00,0.0059
1800.00,0.0059
1799.00,0.0059
1798.00,0.0059
1797.00,0.0059
1796.00,0.0059
1795.00,0.0059
1794.00,0.0059
1793.00,0.0059
1792.00,0.0059
1791.00,0.0059
1790.00,0.0059
1789.00,0.0059
1788.00,0.0058
1787.00,0.0058
1786.00,0.0058
1785.00,0.0058
1784.00,0.0058
1783.00,0.0058
1782.00,0.0058
1781.00,0.0058
1780.00,0.0058
1779.00,0.0058
1778.00,0.0058
1777.00,0.0058
1776.00,0.0058
1775.00,0.0058
1774.00,0.0058
1773.00,0.0059
1772.00,0.0059
1771.00,0.0059
1770.00,0.0059
1769.00,0.0059
1768.00,0.0059
1767.00,0.0059
1766.00,0.0059
1765.00,0.0059
1764.00,0.0059
1763.00,0.0059
1762.00,0.0059
1761.00,0.0059
1760.00,0.0059
1759.00,0.0059
1758.00,0.0059
1757.00,0.0059
1756.00,0.0059
1755.00,0.0059
1754.00,0.0059
1753.00,0.0059
1752.00,0.0059
1751.00,0.0058
1750.00,0.0058
1749.00,0.0059
1748.00,0.0059
1747.00,0.0059
1746.00,0.0059
1745.00,0.0059
1744.00,0.0059
1743.00,0.0059
1742.00,0.0059
1741.00,0.0059
1740.00,0.0059
1739.00,0.0059
1738.00,0.0059
1737.00,0.0059
1736.00,0.0058
1735.00,0.0058
1734.00,0.0058
1733.00,0.0059
1732.00,0.0059
1731.00,0.0059
1730.00,0.0059
1729.00,0.0059
1728.00,0.0059
1727.00,0.0059
1726.00,0.0059
1725.00,0.0059
1724.00,0.0059
1723.00,0.0059
1722.00,0.0059
1721.00,0.0059
1720.00,0.0059
1719.00,0.0059
1718.00,0.0059
1717.00,0.0059
1716.00,0.0059
1715.00,0.0059
1714.00,0.0059
1713.00,0.0059
1712.00,0.0059
1711.00,0.0060
1710.00,0.0060
1709.00,0.0060
1708.00,0.0060
1707.00,0.0060
1706.00,0.0060
1705.00,0.0060
1704.00,0.0060
1703.00,0.0060
1702.00,0.0060
1701.00,0.0060
1700.00,0.0060
1699.00,0.0060
1698.00,0.0060
1697.00,0.0060
1696.00,0.0060
1695.00,0.0061
1694.00,0.0061
1693.00,0.0061
1692.00,0.0061
1691.00,0.0061
1690.00,0.0061
1689.00,0.0061
1688.00,0.0061
1687.00,0.0061
1686.00,0.0061
1685.00,0.0061
1684.00,0.0061
1683.00,0.0061
1682.00,0.0060
1681.00,0.0060
1680.00,0.0060
1679.00,0.0060
1678.00,0.0060
1677.00,0.0060
1676.00,0.0060
1675.00,0.0061
1674.00,0.0061
1673.00,0.0061
1672.00,0.0061
1671.00,0.0061
1670.00,0.0061
1669.00,0.0061
1668.00,0.0061
1667.00,0.0061
1666.00,0.0061
1665.00,0.0062
1664.00,0.0062
1663.00,0.0062
1662.00,0.0062
1661.00,0.0062
1660.00,0.0062
1659.00,0.0062
1658.00,0.0062
1657.00,0.0063
1656.00,0.0063
1655.00,0.0063
1654.00,0.0063
1653.00,0.0063
1652.00,0.0063
1651.00,0.0063
1650.00,0.0063
1649.00,0.0063
1648.00,0.0062
1647.00,0.0062
1646.00,0.0062
1645.00,0.0061
1644.00,0.0061
1643.00,0.0061
1642.00,0.0061
1641.00,0.0061
1640.00,0.0060
1639.00,0.0060
1638.00,0.0060
1637.00,0.0060
1636.00,0.0060
1635.00,0.0060
1634.00,0.0060
1633.00,0.0060
1632.00,0.0060
1631.00,0.0060
1630.00,0.0060
1629.00,0.0060
1628.00,0.0060
1627.00,0.0060
1626.00,0.0060
1625.00,0.0060
1624.00,0.0060
1623.00,0.0061
1622.00,0.0060
1621.00,0.0060
1620.00,0.0060
1619.00,0.0060
1618.00,0.0060
1617.00,0.0060
1616.00,0.0060
1615.00,0.0060
1614.00,0.0060
1613.00,0.0060
1612.00,0.0060
1611.00,0.0060
1610.00,0.0060
1609.00,0.0060
1608.00,0.0061
1607.00,0.0061
1606.00,0.0061
1605.00,0.0061
1604.00,0.0061
1603.00,0.0061
1602.00,0.0061
1601.00,0.0061
1600.00,0.0061
1599.00,0.0061
1598.00,0.0061
1597.00,0.0061
1596.00,0.0061
1595.00,0.0061
1594.00,0.0061
1593.00,0.0061
1592.00,0.0062
1591.00,0.0062
1590.00,0.0062
1589.00,0.0062
1588.00,0.0062
1587.00,0.0062
1586.00,0.0062
1585.00,0.0062
1584.00,0.0062
1583.00,0.0062
1582.00,0.0062
1581.00,0.0062
1580.00,0.0063
1579.00,0.0063
1578.00,0.0063
1577.00,0.0063
1576.00,0.0063
1575.00,0.0063
1574.00,0.0063
1573.00,0.0063
1572.00,0.0063
1571.00,0.0063
1570.00,0.0063
1569.00,0.0062
1568.00,0.0062
1567.00,0.0062
1566.00,0.0062
1565.00,0.0062
1564.00,0.0062
1563.00,0.0062
1562.00,0.0062
1561.00,0.0062
1560.00,0.0062
1559.00,0.0062
1558.00,0.0062
1557.00,0.0063
1556.00,0.0063
1555.00,0.0063
1554.00,0.0063
1553.00,0.0063
1552.00,0.0063
1551.00,0.0064
1550.00,0.0064
1549.00,0.0064
1548.00,0.0064
1547.00,0.0065
1546.00,0.0065
1545.00,0.0065
1544.00,0.0066
1543.00,0.0066
1542.00,0.0067
1541.00,0.0067
1540.00,0.0067
1539.00,0.0067
1538.00,0.0067
1537.00,0.0068
1536.00,0.0068
1535.00,0.0068
1534.00,0.0069
1533.00,0.0069
1532.00,0.0070
1531.00,0.0070
1530.00,0.0070
1529.00,0.0070
1528.00,0.0071
1527.00,0.0071
1526.00,0.0072
1525.00,0.0072
1524.00,0.0073
1523.00,0.0073
1522.00,0.0074
1521.00,0.0074
1520.00,0.0075
1519.00,0.0075
1518.00,0.0075
1517.00,0.0076
1516.00,0.0076
1515.00,0.0076
1514.00,0.0077
1513.00,0.0077
1512.00,0.0078
1511.00,0.0078
1510.00,0.0079
1509.00,0.0079
1508.00,0.0080
1507.00,0.0081
1506.00,0.0081
1505.00,0.0082
1504.00,0.0082
1503.00,0.0082
1502.00,0.0083
1501.00,0.0083
1500.00,0.0084
1499.00,0.0084
1498.00,0.0085
1497.00,0.0085
1496.00,0.0086
1495.00,0.0087
1494.00,0.0087
1493.00,0.0088
1492.00,0.0088
1491.00,0.0089
1490.00,0.0090
1489.00,0.0091
1488.00,0.0092
1487.00,0.0093
1486.00,0.0094
1485.00,0.0095
1484.00,0.0096
1483.00,0.0097
1482.00,0.0099
1481.00,0.0101
1480.00,0.0104
1479.00,0.0106
1478.00,0.0110
1477.00,0.0116
1476.00,0.0123
1475.00,0.0134
1474.00,0.0151
1473.00,0.0173
1472.00,0.0199
1471.00,0.0221
1470.00,0.0235
1469.00,0.0238
1468.00,0.0230
1467.00,0.0212
1466.00,0.0190
1465.00,0.0169
1464.00,0.0155
1463.00,0.0148
1462.00,0.0146
1461.00,0.0148
1460.00,0.0152
1459.00,0.0159
1458.00,0.0171
1457.00,0.0188
1456.00,0.0208
1455.00,0.0228
1454.00,0.0243
1453.00,0.0252
1452.00,0.0252
1451.00,0.0244
1450.00,0.0231
1449.00,0.0217
1448.00,0.0205
1447.00,0.0198
1446.00,0.0194
1445.00,0.0195
1444.00,0.0197
1443.00,0.0202
1442.00,0.0209
1441.00,0.0218
1440.00,0.0228
1439.00,0.0240
1438.00,0.0255
1437.00,0.0273
1436.00,0.0294
1435.00,0.0315
1434.00,0.0334
1433.00,0.0352
1432.00,0.0371
1431.00,0.0387
1430.00,0.0401
1429.00,0.0410
1428.00,0.0413
1427.00,0.0411
1426.00,0.0404
1425.00,0.0392
1424.00,0.0378
1423.00,0.0363
1422.00,0.0348
1421.00,0.0335
1420.00,0.0322
1419.00,0.0310
1418.00,0.0301
1417.00,0.0296
1416.00,0.0292
1415.00,0.0289
1414.00,0.0288
1413.00,0.0288
1412.00,0.0289
1411.00,0.0292
1410.00,0.0297
1409.00,0.0305
1408.00,0.0314
1407.00,0.0326
1406.00,0.0341
1405.00,0.0358
1404.00,0.0377
1403.00,0.0395
1402.00,0.0413
1401.00,0.0430
1400.00,0.0446
1399.00,0.0458
1398.00,0.0465
1397.00,0.0467
1396.00,0.0464
1395.00,0.0455
1394.00,0.0443
1393.00,0.0428
1392.00,0.0412
1391.00,0.0396
1390.00,0.0380
1389.00,0.0364
1388.00,0.0347
1387.00,0.0331
1386.00,0.0315
1385.00,0.0302
1384.00,0.0289
1383.00,0.0277
1382.00,0.0267
1381.00,0.0259
1380.00,0.0252
1379.00,0.0249
1378.00,0.0247
1377.00,0.0250
1376.00,0.0255
1375.00,0.0264
1374.00,0.0273
1373.00,0.0280
1372.00,0.0281
1371.00,0.0273
1370.00,0.0258
1369.00,0.0239
1368.00,0.0219
1367.00,0.0202
1366.00,0.0191
1365.00,0.0185
1364.00,0.0182
1363.00,0.0183
1362.00,0.0188
1361.00,0.0195
1360.00,0.0204
1359.00,0.0216
1358.00,0.0230
1357.00,0.0247
1356.00,0.0266
1355.00,0.0288
1354.00,0.0311
1353.00,0.0337
1352.00,0.0363
1351.00,0.0391
1350.00,0.0419
1349.00,0.0448
1348.00,0.0477
1347.00,0.0507
1346.00,0.0537
1345.00,0.0569
1344.00,0.0602
1343.00,0.0636
1342.00,0.0671
1341.00,0.0705
1340.00,0.0737
1339.00,0.0767
1338.00,0.0794
1337.00,0.0821
1336.00,0.0849
1335.00,0.0874
1334.00,0.0889
1333.00,0.0888
1332.00,0.0866
1331.00,0.0825
1330.00,0.0771
1329.00,0.0710
1328.00,0.0649
1327.00,0.0592
1326.00,0.0541
1325.00,0.0496
1324.00,0.0457
1323.00,0.0424
1322.00,0.0395
1321.00,0.0370
1320.00,0.0348
1319.00,0.0330
1318.00,0.0314
1317.00,0.0301
1316.00,0.0291
1315.00,0.0282
1314.00,0.0275
1313.00,0.0269
1312.00,0.0264
1311.00,0.0260
1310.00,0.0256
1309.00,0.0253
1308.00,0.0250
1307.00,0.0247
1306.00,0.0246
1305.00,0.0245
1304.00,0.0246
1303.00,0.0248
1302.00,0.0250
1301.00,0.0253
1300.00,0.0256
1299.00,0.0259
1298.00,0.0260
1297.00,0.0259
1296.00,0.0257
1295.00,0.0253
1294.00,0.0248
1293.00,0.0242
1292.00,0.0236
1291.00,0.0229
1290.00,0.0223
1289.00,0.0217
1288.00,0.0212
1287.00,0.0208
1286.00,0.0206
1285.00,0.0204
1284.00,0.0204
1283.00,0.0206
1282.00,0.0210
1281.00,0.0215
1280.00,0.0222
1279.00,0.0231
1278.00,0.0241
1277.00,0.0250
1276.00,0.0258
1275.00,0.0263
1274.00,0.0265
1273.00,0.0266
1272.00,0.0269
1271.00,0.0276
1270.00,0.0295
1269.00,0.0326
1268.00,0.0370
1267.00,0.0416
1266.00,0.0452
1265.00,0.0463
1264.00,0.0447
1263.00,0.0411
1262.00,0.0368
1261.00,0.0329
1260.00,0.0302
1259.00,0.0286
1258.00,0.0280
1257.00,0.0282
1256.00,0.0288
1255.00,0.0297
1254.00,0.0307
1253.00,0.0317
1252.00,0.0325
1251.00,0.0329
1250.00,0.0328
1249.00,0.0323
1248.00,0.0314
1247.00,0.0302
1246.00,0.0289
1245.00,0.0276
1244.00,0.0265
1243.00,0.0256
1242.00,0.0249
1241.00,0.0243
1240.00,0.0240
1239.00,0.0238
1238.00,0.0238
1237.00,0.0240
1236.00,0.0243
1235.00,0.0247
1234.00,0.0250
1233.00,0.0253
1232.00,0.0252
1231.00,0.0248
1230.00,0.0242
1229.00,0.0234
1228.00,0.0224
1227.00,0.0215
1226.00,0.0206
1225.00,0.0199
1224.00,0.0192
1223.00,0.0187
1222.00,0.0182
1221.00,0.0178
1220.00,0.0174
1219.00,0.0170
1218.00,0.0165
1217.00,0.0161
1216.00,0.0157
1215.00,0.0153
1214.00,0.0149
1213.00,0.0146
1212.00,0.0143
1211.00,0.0140
1210.00,0.0138
1209.00,0.0136
1208.00,0.0135
1207.00,0.0133
1206.00,0.0132
1205.00,0.0130
1204.00,0.0129
1203.00,0.0128
1202.00,0.0128
1201.00,0.0128
1200.00,0.0129
1199.00,0.0129
1198.00,0.0130
1197.00,0.0132
1196.00,0.0133
1195.00,0.0135
1194.00,0.0138
1193.00,0.0142
1192.00,0.0146
1191.00,0.0151
1190.00,0.0157
1189.00,0.0164
1188.00,0.0173
1187.00,0.0183
1186.00,0.0196
1185.00,0.0212
1184.00,0.0231
1183.00,0.0254
1182.00,0.0282
1181.00,0.0312
1180.00,0.0345
1179.00,0.0379
1178.00,0.0409
1177.00,0.0431
1176.00,0.0442
1175.00,0.0440
1174.00,0.0426
1173.00,0.0403
1172.00,0.0375
1171.00,0.0347
1170.00,0.0323
1169.00,0.0302
1168.00,0.0287
1167.00,0.0277
1166.00,0.0273
1165.00,0.0273
1164.00,0.0278
1163.00,0.0287
1162.00,0.0301
1161.00,0.0321
1160.00,0.0347
1159.00,0.0379
1158.00,0.0419
1157.00,0.0468
1156.00,0.0524
1155.00,0.0587
1154.00,0.0654
1153.00,0.0724
1152.00,0.0790
1151.00,0.0849
1150.00,0.0895
1149.00,0.0926
1148.00,0.0938
1147.00,0.0933
1146.00,0.0910
1145.00,0.0874
1144.00,0.0827
1143.00,0.0777
1142.00,0.0729
1141.00,0.0691
1140.00,0.0666
1139.00,0.0654
1138.00,0.0653
1137.00,0.0659
1136.00,0.0666
1135.00,0.0671
1134.00,0.0670
1133.00,0.0662
1132.00,0.0648
1131.00,0.0629
1130.00,0.0606
1129.00,0.0581
1128.00,0.0554
1127.00,0.0527
1126.00,0.0501
1125.00,0.0475
1124.00,0.0451
1123.00,0.0428
1122.00,0.0406
1121.00,0.0386
1120.00,0.0367
1119.00,0.0350
1118.00,0.0335
1117.00,0.0322
1116.00,0.0310
1115.00,0.0299
1114.00,0.0291
1113.00,0.0284
1112.00,0.0277
1111.00,0.0272
1110.00,0.0269
1109.00,0.0267
1108.00,0.0268
1107.00,0.0271
1106.00,0.0277
1105.00,0.0286
1104.00,0.0300
1103.00,0.0321
1102.00,0.0352
1101.00,0.0396
1100.00,0.0456
1099.00,0.0534
1098.00,0.0631
1097.00,0.0739
1096.00,0.0847
1095.00,0.0934
1094.00,0.0984
1093.00,0.0989
1092.00,0.0955
1091.00,0.0902
1090.00,0.0847
1089.00,0.0802
1088.00,0.0771
1087.00,0.0757
1086.00,0.0761
1085.00,0.0788
1084.00,0.0840
1083.00,0.0919
1082.00,0.1018
1081.00,0.1125
1080.00,0.1227
1079.00,0.1311
1078.00,0.1373
1077.00,0.1408
1076.00,0.1415
1075.00,0.1391
1074.00,0.1340
1073.00,0.1267
1072.00,0.1187
1071.00,0.1114
1070.00,0.1058
1069.00,0.1027
1068.00,0.1021
1067.00,0.1038
1066.00,0.1071
1065.00,0.1113
1064.00,0.1156
1063.00,0.1194
1062.00,0.1227
1061.00,0.1256
1060.00,0.1285
1059.00,0.1318
1058.00,0.1356
1057.00,0.1399
1056.00,0.1449
1055.00,0.1503
1054.00,0.1559
1053.00,0.1614
1052.00,0.1664
1051.00,0.1704
1050.00,0.1731
1049.00,0.1742
1048.00,0.1737
1047.00,0.1717
1046.00,0.1683
1045.00,0.1639
1044.00,0.1586
1043.00,0.1528
1042.00,0.1468
1041.00,0.1407
1040.00,0.1348
1039.00,0.1292
1038.00,0.1242
1037.00,0.1199
1036.00,0.1164
1035.00,0.1139
1034.00,0.1123
1033.00,0.1114
1032.00,0.1109
1031.00,0.1106
1030.00,0.1101
1029.00,0.1090
1028.00,0.1072
1027.00,0.1046
1026.00,0.1015
1025.00,0.0979
1024.00,0.0941
1023.00,0.0902
1022.00,0.0863
1021.00,0.0826
1020.00,0.0791
1019.00,0.0757
1018.00,0.0726
1017.00,0.0696
1016.00,0.0667
1015.00,0.0640
1014.00,0.0615
1013.00,0.0590
1012.00,0.0566
1011.00,0.0544
1010.00,0.0523
1009.00,0.0503
1008.00,0.0483
1007.00,0.0465
1006.00,0.0448
1005.00,0.0431
1004.00,0.0414
1003.00,0.0398
1002.00,0.0383
1001.00,0.0369
1000.00,0.0355
999.00,0.0343
998.00,0.0332
997.00,0.0322
996.00,0.0314
995.00,0.0307
994.00,0.0302
993.00,0.0298
992.00,0.0297
991.00,0.0298
990.00,0.0302
989.00,0.0310
988.00,0.0324
987.00,0.0346
986.00,0.0380
985.00,0.0432
984.00,0.0509
983.00,0.0619
982.00,0.0764
981.00,0.0940
980.00,0.1130
979.00,0.1306
978.00,0.1439
977.00,0.1508
976.00,0.1511
975.00,0.1461
974.00,0.1379
973.00,0.1284
972.00,0.1187
971.00,0.1095
970.00,0.1012
969.00,0.0936
968.00,0.0868
967.00,0.0808
966.00,0.0756
965.00,0.0710
964.00,0.0669
963.00,0.0633
962.00,0.0601
961.00,0.0572
960.00,0.0545
959.00,0.0521
958.00,0.0499
957.00,0.0479
956.00,0.0461
955.00,0.0445
954.00,0.0430
953.00,0.0417
952.00,0.0404
951.00,0.0393
950.00,0.0383
949.00,0.0375
948.00,0.0366
947.00,0.0358
946.00,0.0351
945.00,0.0345
944.00,0.0339
943.00,0.0333
942.00,0.0328
941.00,0.0323
940.00,0.0318
939.00,0.0313
938.00,0.0311
937.00,0.0308
936.00,0.0307
935.00,0.0306
934.00,0.0307
933.00,0.0311
932.00,0.0318
931.00,0.0332
930.00,0.0354
929.00,0.0389
928.00,0.0435
927.00,0.0492
926.00,0.0550
925.00,0.0597
924.00,0.0621
923.00,0.0615
922.00,0.0583
921.00,0.0534
920.00,0.0481
919.00,0.0434
918.00,0.0396
917.00,0.0368
916.00,0.0347
915.00,0.0330
914.00,0.0318
913.00,0.0308
912.00,0.0300
911.00,0.0293
910.00,0.0288
909.00,0.0284
908.00,0.0280
907.00,0.0275
906.00,0.0272
905.00,0.0269
904.00,0.0266
903.00,0.0263
902.00,0.0262
901.00,0.0260
900.00,0.0259
899.00,0.0258
898.00,0.0258
897.00,0.0257
896.00,0.0257
895.00,0.0258
894.00,0.0259
893.00,0.0261
892.00,0.0262
891.00,0.0265
890.00,0.0268
889.00,0.0273
888.00,0.0278
887.00,0.0285
886.00,0.0293
885.00,0.0304
884.00,0.0318
883.00,0.0335
882.00,0.0357
881.00,0.0385
880.00,0.0421
879.00,0.0465
878.00,0.0515
877.00,0.0568
876.00,0.0614
875.00,0.0644
874.00,0.0651
873.00,0.0636
872.00,0.0609
871.00,0.0584
870.00,0.0571
869.00,0.0570
868.00,0.0576
867.00,0.0581
866.00,0.0578
865.00,0.0563
864.00,0.0537
863.00,0.0506
862.00,0.0473
861.00,0.0443
860.00,0.0416
859.00,0.0394
858.00,0.0376
857.00,0.0361
856.00,0.0348
855.00,0.0338
854.00,0.0330
853.00,0.0323
852.00,0.0317
851.00,0.0312
850.00,0.0309
849.00,0.0307
848.00,0.0305
847.00,0.0303
846.00,0.0303
845.00,0.0303
844.00,0.0304
843.00,0.0305
842.00,0.0308
841.00,0.0310
840.00,0.0314
839.00,0.0318
838.00,0.0324
837.00,0.0331
836.00,0.0339
835.00,0.0349
834.00,0.0360
833.00,0.0372
832.00,0.0385
831.00,0.0399
830.00,0.0414
829.00,0.0429
828.00,0.0445
827.00,0.0461
826.00,0.0480
825.00,0.0502
824.00,0.0531
823.00,0.0567
822.00,0.0612
821.00,0.0660
820.00,0.0702
819.00,0.0732
818.00,0.0742
817.00,0.0733
816.00,0.0707
815.00,0.0673
814.00,0.0637
813.00,0.0602
812.00,0.0571
811.00,0.0545
810.00,0.0525
809.00,0.0508
808.00,0.0494
807.00,0.0484
806.00,0.0476
805.00,0.0471
804.00,0.0468
803.00,0.0467
802.00,0.0468
801.00,0.0471
800.00,0.0476
799.00,0.0484
798.00,0.0494
797.00,0.0506
796.00,0.0521
795.00,0.0539
794.00,0.0563
793.00,0.0591
792.00,0.0626
791.00,0.0668
790.00,0.0721
789.00,0.0787
788.00,0.0867
787.00,0.0961
786.00,0.1069
785.00,0.1179
784.00,0.1277
783.00,0.1350
782.00,0.1383
781.00,0.1374
780.00,0.1326
779.00,0.1253
778.00,0.1167
777.00,0.1079
776.00,0.0994
775.00,0.0917
774.00,0.0849
773.00,0.0789
772.00,0.0737
771.00,0.0693
770.00,0.0656
769.00,0.0624
768.00,0.0598
767.00,0.0576
766.00,0.0558
765.00,0.0542
764.00,0.0529
763.00,0.0517
762.00,0.0507
761.00,0.0498
760.00,0.0490
759.00,0.0484
758.00,0.0478
757.00,0.0473
756.00,0.0469
755.00,0.0465
754.00,0.0462
753.00,0.0459
752.00,0.0457
751.00,0.0455
750.00,0.0455
749.00,0.0454
748.00,0.0453
747.00,0.0451
746.00,0.0450
745.00,0.0449
744.00,0.0448
743.00,0.0448
742.00,0.0448
741.00,0.0448
740.00,0.0447
739.00,0.0447
738.00,0.0448
737.00,0.0449
736.00,0.0450
735.00,0.0451
734.00,0.0452
733.00,0.0453
732.00,0.0454
731.00,0.0455
730.00,0.0457
729.00,0.0459
728.00,0.0461
727.00,0.0464
726.00,0.0467
725.00,0.0470
724.00,0.0473
723.00,0.0477
722.00,0.0480
721.00,0.0484
720.00,0.0487
719.00,0.0492
718.00,0.0497
717.00,0.0503
716.00,0.0509
715.00,0.0515
714.00,0.0521
713.00,0.0528
712.00,0.0534
711.00,0.0541
710.00,0.0548
709.00,0.0556
708.00,0.0563
707.00,0.0570
706.00,0.0577
705.00,0.0584
704.00,0.0590
703.00,0.0597
702.00,0.0604
701.00,0.0611
700.00,0.0618
699.00,0.0626
698.00,0.0634
697.00,0.0641
696.00,0.0648
695.00,0.0654
694.00,0.0660
693.00,0.0666
692.00,0.0671
691.00,0.0676
690.00,0.0681
689.00,0.0685
688.00,0.0688
687.00,0.0691
686.00,0.0694
685.00,0.0696
684.00,0.0698
683.00,0.0699
682.00,0.0700
681.00,0.0700
680.00,0.0699
679.00,0.0698
678.00,0.0697
677.00,0.0696
676.00,0.0693
675.00,0.0690
674.00,0.0686
673.00,0.0682
672.00,0.0678
671.00,0.0674
670.00,0.0671
669.00,0.0668
668.00,0.0665
667.00,0.0660
666.00,0.0654
665.00,0.0647
664.00,0.0641
663.00,0.0636
662.00,0.0631
661.00,0.0626
660.00,0.0620
659.00,0.0615
658.00,0.0611
657.00,0.0606
656.00,0.0599
655.00,0.0593
654.00,0.0588
653.00,0.0584
652.00,0.0579
651.00,0.0575
650.00,0.0571
649.00,0.0567
648.00,0.0562
647.00,0.0558
646.00,0.0555
645.00,0.0554
644.00,0.0552
643.00,0.0552
642.00,0.0553
641.00,0.0557
640.00,0.0562
639.00,0.0571
638.00,0.0584
637.00,0.0603
636.00,0.0629
635.00,0.0666
634.00,0.0717
633.00,0.0783
632.00,0.0866
631.00,0.0965
630.00,0.1076
629.00,0.1184
628.00,0.1273
627.00,0.1326
626.00,0.1338
625.00,0.1312
624.00,0.1260
623.00,0.1193
622.00,0.1124
621.00,0.1058
620.00,0.0998
619.00,0.0946
618.00,0.0903
617.00,0.0870
616.00,0.0844
615.00,0.0826
614.00,0.0814
613.00,0.0804
612.00,0.0795
611.00,0.0788
610.00,0.0782
609.00,0.0778
608.00,0.0775
607.00,0.0775
606.00,0.0781
605.00,0.0793
604.00,0.0812
603.00,0.0839
602.00,0.0872
601.00,0.0907
600.00,0.0939
599.00,0.0965
598.00,0.0983
597.00,0.0993
596.00,0.0997
595.00,0.0997
594.00,0.0996
593.00,0.0995
592.00,0.0994
591.00,0.0995
590.00,0.0998
589.00,0.1002
588.00,0.1007
587.00,0.1012
586.00,0.1020
585.00,0.1029
584.00,0.1040
583.00,0.1052
582.00,0.1065
581.00,0.1077
580.00,0.1088
579.00,0.1099
578.00,0.1112
577.00,0.1125
576.00,0.1139
575.00,0.1153
574.00,0.1167
573.00,0.1179
572.00,0.1188
571.00,0.1197
570.00,0.1207
569.00,0.1216
568.00,0.1221
567.00,0.1225
566.00,0.1229
565.00,0.1233
564.00,0.1235
563.00,0.1237
562.00,0.1239
561.00,0.1242
560.00,0.1243
559.00,0.1244
558.00,0.1247
557.00,0.1249
556.00,0.1251
555.00,0.1253
554.00,0.1257
553.00,0.1261
552.00,0.1265
551.00,0.1269
550.00,0.1275
549.00,0.1281
548.00,0.1286
547.00,0.1291
546.00,0.1297
545.00,0.1304
544.00,0.1310
543.00,0.1316
542.00,0.1323
541.00,0.1330
540.00,0.1335
539.00,0.1341
538.00,0.1346
537.00,0.1349
536.00,0.1349
535.00,0.1350
534.00,0.1351
533.00,0.1350
532.00,0.1344
531.00,0.1336
530.00,0.1328
529.00,0.1323
528.00,0.1324
527.00,0.1330
526.00,0.1341
525.00,0.1351
524.00,0.1356
523.00,0.1357
522.00,0.1358
521.00,0.1356
520.00,0.1350
519.00,0.1343
518.00,0.1334
517.00,0.1323
516.00,0.1310
515.00,0.1298
514.00,0.1289
513.00,0.1280
512.00,0.1268
511.00,0.1258
510.00,0.1250
509.00,0.1243
508.00,0.1234
507.00,0.1225
506.00,0.1215
505.00,0.1204
504.00,0.1191
503.00,0.1178
502.00,0.1167
501.00,0.1158
500.00,0.1146
499.00,0.1135
498.00,0.1126
497.00,0.1118
496.00,0.1107
495.00,0.1094
494.00,0.1082
493.00,0.1069
492.00,0.1055
491.00,0.1044
490.00,0.1035
489.00,0.1024
488.00,0.1010
487.00,0.0996
486.00,0.0985
485.00,0.0976
484.00,0.0965
483.00,0.0954
482.00,0.0944
481.00,0.0934
480.00,0.0922
479.00,0.0912
478.00,0.0908
477.00,0.0906
476.00,0.0906
475.00,0.0912
474.00,0.0925
473.00,0.0943
472.00,0.0966
471.00,0.0994
470.00,0.1025
469.00,0.1049
468.00,0.1059
467.00,0.1059
466.00,0.1054
465.00,0.1041
464.00,0.1022
463.00,0.0999
462.00,0.0977
461.00,0.0954
460.00,0.0931
459.00,0.0909
458.00,0.0889
457.00,0.0870
456.00,0.0853
455.00,0.0841
454.00,0.0837
453.00,0.0832
452.00,0.0820
451.00,0.0806
450.00,0.0795
449.00,0.0786
448.00,0.0776
447.00,0.0769
446.00,0.0768
445.00,0.0767
444.00,0.0763
443.00,0.0760
442.00,0.0761
441.00,0.0762
440.00,0.0760
439.00,0.0759
438.00,0.0760
437.00,0.0757
436.00,0.0746
435.00,0.0733
434.00,0.0725
433.00,0.0719
432.00,0.0713
431.00,0.0714
430.00,0.0731
429.00,0.0761
428.00,0.0801
427.00,0.0848
426.00,0.0889
425.00,0.0904
424.00,0.0887
423.00,0.0853
422.00,0.0823
421.00,0.0797
420.00,0.0772
419.00,0.0761
418.00,0.0776
417.00,0.0802
416.00,0.0826
415.00,0.0854
414.00,0.0887
413.00,0.0919
412.00,0.0943
411.00,0.0971
410.00,0.1011
409.00,0.1046
408.00,0.1062
407.00,0.1068
406.00,0.1078
405.00,0.1082
404.00,0.1074
403.00,0.1066
402.00,0.1071
401.00,0.1078
400.00,0.1068
