Created as New Dataset,Sample 860 By YargerLab Date Saturday, April 18 2026
cm-1,A
4000.00,0.0012
3999.00,0.0012
3998.00,0.0012
3997.00,0.0012
3996.00,0.0012
3995.00,0.0012
3994.00,0.0012
3993.00,0.0012
3992.00,0.0012
3991.00,0.0012
3990.00,0.0012
3989.00,0.0012
3988.00,0.0012
3987.00,0.0012
3986.00,0.0012
3985.00,0.0012
3984.00,0.0012
3983.00,0.0012
3982.00,0.0012
3981.00,0.0012
3980.00,0.0012
3979.00,0.0012
3978.00,0.0011
3977.00,0.0011
3976.00,0.0011
3975.00,0.0011
3974.00,0.0011
3973.00,0.0011
3972.00,0.0010
3971.00,0.0010
3970.00,0.0010
3969.00,0.0010
3968.00,0.0010
3967.00,0.0009
3966.00,0.0009
3965.00,0.0009
3964.00,0.0009
3963.00,0.0009
3962.00,0.0009
3961.00,0.0009
3960.00,0.0010
3959.00,0.0010
3958.00,0.0010
3957.00,0.0010
3956.00,0.0010
3955.00,0.0010
3954.00,0.0010
3953.00,0.0010
3952.00,0.0010
3951.00,0.0010
3950.00,0.0010
3949.00,0.0010
3948.00,0.0010
3947.00,0.0011
3946.00,0.0011
3945.00,0.0011
3944.00,0.0011
3943.00,0.0011
3942.00,0.0011
3941.00,0.0011
3940.00,0.0011
3939.00,0.0011
3938.00,0.0010
3937.00,0.0010
3936.00,0.0010
3935.00,0.0010
3934.00,0.0009
3933.00,0.0009
3932.00,0.0010
3931.00,0.0010
3930.00,0.0010
3929.00,0.0010
3928.00,0.0010
3927.00,0.0010
3926.00,0.0010
3925.00,0.0010
3924.00,0.0010
3923.00,0.0010
3922.00,0.0010
3921.00,0.0010
3920.00,0.0010
3919.00,0.0011
3918.00,0.0011
3917.00,0.0011
3916.00,0.0011
3915.00,0.0011
3914.00,0.0011
3913.00,0.0012
3912.00,0.0012
3911.00,0.0012
3910.00,0.0012
3909.00,0.0013
3908.00,0.0013
3907.00,0.0013
3906.00,0.0013
3905.00,0.0013
3904.00,0.0013
3903.00,0.0013
3902.00,0.0014
3901.00,0.0014
3900.00,0.0013
3899.00,0.0013
3898.00,0.0013
3897.00,0.0012
3896.00,0.0012
3895.00,0.0012
3894.00,0.0012
3893.00,0.0012
3892.00,0.0012
3891.00,0.0012
3890.00,0.0012
3889.00,0.0012
3888.00,0.0012
3887.00,0.0012
3886.00,0.0011
3885.00,0.0011
3884.00,0.0012
3883.00,0.0012
3882.00,0.0011
3881.00,0.0011
3880.00,0.0011
3879.00,0.0010
3878.00,0.0010
3877.00,0.0010
3876.00,0.0010
3875.00,0.0010
3874.00,0.0010
3873.00,0.0010
3872.00,0.0010
3871.00,0.0010
3870.00,0.0009
3869.00,0.0009
3868.00,0.0009
3867.00,0.0009
3866.00,0.0009
3865.00,0.0009
3864.00,0.0009
3863.00,0.0009
3862.00,0.0009
3861.00,0.0009
3860.00,0.0009
3859.00,0.0009
3858.00,0.0009
3857.00,0.0010
3856.00,0.0010
3855.00,0.0010
3854.00,0.0010
3853.00,0.0010
3852.00,0.0010
3851.00,0.0010
3850.00,0.0010
3849.00,0.0010
3848.00,0.0010
3847.00,0.0010
3846.00,0.0010
3845.00,0.0011
3844.00,0.0011
3843.00,0.0011
3842.00,0.0012
3841.00,0.0012
3840.00,0.0012
3839.00,0.0012
3838.00,0.0011
3837.00,0.0011
3836.00,0.0011
3835.00,0.0011
3834.00,0.0011
3833.00,0.0011
3832.00,0.0011
3831.00,0.0010
3830.00,0.0011
3829.00,0.0011
3828.00,0.0011
3827.00,0.0011
3826.00,0.0011
3825.00,0.0011
3824.00,0.0011
3823.00,0.0011
3822.00,0.0011
3821.00,0.0011
3820.00,0.0011
3819.00,0.0011
3818.00,0.0011
3817.00,0.0010
3816.00,0.0010
3815.00,0.0010
3814.00,0.0011
3813.00,0.0011
3812.00,0.0010
3811.00,0.0010
3810.00,0.0010
3809.00,0.0010
3808.00,0.0010
3807.00,0.0010
3806.00,0.0010
3805.00,0.0010
3804.00,0.0010
3803.00,0.0010
3802.00,0.0010
3801.00,0.0010
3800.00,0.0010
3799.00,0.0010
3798.00,0.0010
3797.00,0.0009
3796.00,0.0009
3795.00,0.0009
3794.00,0.0009
3793.00,0.0009
3792.00,0.0009
3791.00,0.0009
3790.00,0.0009
3789.00,0.0009
3788.00,0.0009
3787.00,0.0009
3786.00,0.0009
3785.00,0.0009
3784.00,0.0009
3783.00,0.0009
3782.00,0.0010
3781.00,0.0010
3780.00,0.0010
3779.00,0.0010
3778.00,0.0009
3777.00,0.0010
3776.00,0.0010
3775.00,0.0010
3774.00,0.0010
3773.00,0.0011
3772.00,0.0011
3771.00,0.0011
3770.00,0.0011
3769.00,0.0011
3768.00,0.0011
3767.00,0.0011
3766.00,0.0011
3765.00,0.0011
3764.00,0.0011
3763.00,0.0011
3762.00,0.0011
3761.00,0.0011
3760.00,0.0011
3759.00,0.0011
3758.00,0.0011
3757.00,0.0011
3756.00,0.0011
3755.00,0.0011
3754.00,0.0011
3753.00,0.0011
3752.00,0.0011
3751.00,0.0011
3750.00,0.0011
3749.00,0.0011
3748.00,0.0011
3747.00,0.0011
3746.00,0.0010
3745.00,0.0010
3744.00,0.0010
3743.00,0.0010
3742.00,0.0010
3741.00,0.0010
3740.00,0.0009
3739.00,0.0009
3738.00,0.0010
3737.00,0.0010
3736.00,0.0010
3735.00,0.0009
3734.00,0.0009
3733.00,0.0009
3732.00,0.0009
3731.00,0.0009
3730.00,0.0009
3729.00,0.0009
3728.00,0.0009
3727.00,0.0009
3726.00,0.0009
3725.00,0.0009
3724.00,0.0009
3723.00,0.0009
3722.00,0.0009
3721.00,0.0009
3720.00,0.0009
3719.00,0.0009
3718.00,0.0009
3717.00,0.0009
3716.00,0.0009
3715.00,0.0009
3714.00,0.0009
3713.00,0.0008
3712.00,0.0008
3711.00,0.0008
3710.00,0.0008
3709.00,0.0008
3708.00,0.0008
3707.00,0.0008
3706.00,0.0008
3705.00,0.0008
3704.00,0.0008
3703.00,0.0008
3702.00,0.0008
3701.00,0.0008
3700.00,0.0008
3699.00,0.0008
3698.00,0.0008
3697.00,0.0008
3696.00,0.0008
3695.00,0.0008
3694.00,0.0008
3693.00,0.0008
3692.00,0.0008
3691.00,0.0008
3690.00,0.0008
3689.00,0.0008
3688.00,0.0008
3687.00,0.0007
3686.00,0.0007
3685.00,0.0007
3684.00,0.0007
3683.00,0.0007
3682.00,0.0007
3681.00,0.0007
3680.00,0.0007
3679.00,0.0007
3678.00,0.0007
3677.00,0.0007
3676.00,0.0006
3675.00,0.0007
3674.00,0.0007
3673.00,0.0007
3672.00,0.0007
3671.00,0.0006
3670.00,0.0006
3669.00,0.0006
3668.00,0.0006
3667.00,0.0005
3666.00,0.0005
3665.00,0.0005
3664.00,0.0004
3663.00,0.0004
3662.00,0.0004
3661.00,0.0005
3660.00,0.0005
3659.00,0.0005
3658.00,0.0005
3657.00,0.0005
3656.00,0.0005
3655.00,0.0005
3654.00,0.0006
3653.00,0.0006
3652.00,0.0006
3651.00,0.0006
3650.00,0.0006
3649.00,0.0006
3648.00,0.0006
3647.00,0.0006
3646.00,0.0006
3645.00,0.0005
3644.00,0.0005
3643.00,0.0005
3642.00,0.0004
3641.00,0.0004
3640.00,0.0004
3639.00,0.0004
3638.00,0.0004
3637.00,0.0004
3636.00,0.0004
3635.00,0.0004
3634.00,0.0005
3633.00,0.0005
3632.00,0.0005
3631.00,0.0005
3630.00,0.0005
3629.00,0.0004
3628.00,0.0004
3627.00,0.0004
3626.00,0.0004
3625.00,0.0004
3624.00,0.0004
3623.00,0.0004
3622.00,0.0004
3621.00,0.0004
3620.00,0.0004
3619.00,0.0004
3618.00,0.0004
3617.00,0.0004
3616.00,0.0004
3615.00,0.0004
3614.00,0.0004
3613.00,0.0004
3612.00,0.0004
3611.00,0.0004
3610.00,0.0004
3609.00,0.0004
3608.00,0.0004
3607.00,0.0004
3606.00,0.0003
3605.00,0.0003
3604.00,0.0003
3603.00,0.0004
3602.00,0.0004
3601.00,0.0004
3600.00,0.0004
3599.00,0.0004
3598.00,0.0004
3597.00,0.0005
3596.00,0.0005
3595.00,0.0005
3594.00,0.0005
3593.00,0.0005
3592.00,0.0005
3591.00,0.0005
3590.00,0.0005
3589.00,0.0005
3588.00,0.0005
3587.00,0.0005
3586.00,0.0005
3585.00,0.0005
3584.00,0.0005
3583.00,0.0005
3582.00,0.0004
3581.00,0.0004
3580.00,0.0004
3579.00,0.0004
3578.00,0.0004
3577.00,0.0004
3576.00,0.0005
3575.00,0.0005
3574.00,0.0005
3573.00,0.0005
3572.00,0.0005
3571.00,0.0005
3570.00,0.0005
3569.00,0.0006
3568.00,0.0006
3567.00,0.0006
3566.00,0.0006
3565.00,0.0006
3564.00,0.0005
3563.00,0.0005
3562.00,0.0005
3561.00,0.0005
3560.00,0.0005
3559.00,0.0005
3558.00,0.0006
3557.00,0.0006
3556.00,0.0006
3555.00,0.0006
3554.00,0.0006
3553.00,0.0006
3552.00,0.0006
3551.00,0.0006
3550.00,0.0006
3549.00,0.0006
3548.00,0.0006
3547.00,0.0007
3546.00,0.0007
3545.00,0.0007
3544.00,0.0007
3543.00,0.0007
3542.00,0.0006
3541.00,0.0007
3540.00,0.0007
3539.00,0.0007
3538.00,0.0007
3537.00,0.0008
3536.00,0.0008
3535.00,0.0008
3534.00,0.0008
3533.00,0.0008
3532.00,0.0008
3531.00,0.0008
3530.00,0.0008
3529.00,0.0008
3528.00,0.0008
3527.00,0.0008
3526.00,0.0008
3525.00,0.0009
3524.00,0.0009
3523.00,0.0009
3522.00,0.0009
3521.00,0.0009
3520.00,0.0009
3519.00,0.0009
3518.00,0.0009
3517.00,0.0009
3516.00,0.0009
3515.00,0.0009
3514.00,0.0009
3513.00,0.0009
3512.00,0.0010
3511.00,0.0010
3510.00,0.0010
3509.00,0.0011
3508.00,0.0011
3507.00,0.0011
3506.00,0.0011
3505.00,0.0011
3504.00,0.0011
3503.00,0.0011
3502.00,0.0011
3501.00,0.0011
3500.00,0.0012
3499.00,0.0012
3498.00,0.0012
3497.00,0.0012
3496.00,0.0012
3495.00,0.0013
3494.00,0.0013
3493.00,0.0013
3492.00,0.0013
3491.00,0.0014
3490.00,0.0014
3489.00,0.0014
3488.00,0.0015
3487.00,0.0015
3486.00,0.0015
3485.00,0.0015
3484.00,0.0015
3483.00,0.0015
3482.00,0.0015
3481.00,0.0015
3480.00,0.0015
3479.00,0.0016
3478.00,0.0016
3477.00,0.0016
3476.00,0.0016
3475.00,0.0016
3474.00,0.0016
3473.00,0.0017
3472.00,0.0017
3471.00,0.0017
3470.00,0.0017
3469.00,0.0017
3468.00,0.0018
3467.00,0.0018
3466.00,0.0018
3465.00,0.0018
3464.00,0.0018
3463.00,0.0018
3462.00,0.0018
3461.00,0.0018
3460.00,0.0018
3459.00,0.0018
3458.00,0.0018
3457.00,0.0018
3456.00,0.0018
3455.00,0.0018
3454.00,0.0018
3453.00,0.0018
3452.00,0.0018
3451.00,0.0019
3450.00,0.0019
3449.00,0.0019
3448.00,0.0020
3447.00,0.0020
3446.00,0.0020
3445.00,0.0020
3444.00,0.0020
3443.00,0.0020
3442.00,0.0020
3441.00,0.0020
3440.00,0.0020
3439.00,0.0020
3438.00,0.0020
3437.00,0.0020
3436.00,0.0020
3435.00,0.0020
3434.00,0.0020
3433.00,0.0021
3432.00,0.0021
3431.00,0.0021
3430.00,0.0020
3429.00,0.0020
3428.00,0.0020
3427.00,0.0020
3426.00,0.0020
3425.00,0.0021
3424.00,0.0021
3423.00,0.0021
3422.00,0.0021
3421.00,0.0021
3420.00,0.0021
3419.00,0.0022
3418.00,0.0022
3417.00,0.0023
3416.00,0.0023
3415.00,0.0023
3414.00,0.0024
3413.00,0.0024
3412.00,0.0024
3411.00,0.0024
3410.00,0.0024
3409.00,0.0024
3408.00,0.0024
3407.00,0.0024
3406.00,0.0024
3405.00,0.0024
3404.00,0.0024
3403.00,0.0024
3402.00,0.0024
3401.00,0.0024
3400.00,0.0025
3399.00,0.0025
3398.00,0.0025
3397.00,0.0025
3396.00,0.0025
3395.00,0.0025
3394.00,0.0025
3393.00,0.0025
3392.00,0.0025
3391.00,0.0025
3390.00,0.0025
3389.00,0.0024
3388.00,0.0024
3387.00,0.0024
3386.00,0.0024
3385.00,0.0024
3384.00,0.0024
3383.00,0.0024
3382.00,0.0024
3381.00,0.0024
3380.00,0.0024
3379.00,0.0024
3378.00,0.0024
3377.00,0.0023
3376.00,0.0023
3375.00,0.0023
3374.00,0.0023
3373.00,0.0023
3372.00,0.0023
3371.00,0.0023
3370.00,0.0023
3369.00,0.0023
3368.00,0.0023
3367.00,0.0023
3366.00,0.0023
3365.00,0.0023
3364.00,0.0023
3363.00,0.0023
3362.00,0.0023
3361.00,0.0023
3360.00,0.0023
3359.00,0.0023
3358.00,0.0023
3357.00,0.0023
3356.00,0.0024
3355.00,0.0024
3354.00,0.0024
3353.00,0.0024
3352.00,0.0024
3351.00,0.0024
3350.00,0.0024
3349.00,0.0024
3348.00,0.0024
3347.00,0.0024
3346.00,0.0024
3345.00,0.0024
3344.00,0.0024
3343.00,0.0024
3342.00,0.0024
3341.00,0.0025
3340.00,0.0025
3339.00,0.0025
3338.00,0.0025
3337.00,0.0025
3336.00,0.0025
3335.00,0.0025
3334.00,0.0025
3333.00,0.0025
3332.00,0.0025
3331.00,0.0025
3330.00,0.0025
3329.00,0.0025
3328.00,0.0025
3327.00,0.0025
3326.00,0.0025
3325.00,0.0025
3324.00,0.0025
3323.00,0.0025
3322.00,0.0025
3321.00,0.0025
3320.00,0.0025
3319.00,0.0025
3318.00,0.0025
3317.00,0.0025
3316.00,0.0025
3315.00,0.0025
3314.00,0.0024
3313.00,0.0025
3312.00,0.0025
3311.00,0.0025
3310.00,0.0025
3309.00,0.0025
3308.00,0.0025
3307.00,0.0025
3306.00,0.0025
3305.00,0.0025
3304.00,0.0025
3303.00,0.0025
3302.00,0.0026
3301.00,0.0026
3300.00,0.0026
3299.00,0.0025
3298.00,0.0025
3297.00,0.0025
3296.00,0.0025
3295.00,0.0025
3294.00,0.0025
3293.00,0.0025
3292.00,0.0025
3291.00,0.0025
3290.00,0.0025
3289.00,0.0025
3288.00,0.0025
3287.00,0.0025
3286.00,0.0025
3285.00,0.0025
3284.00,0.0025
3283.00,0.0025
3282.00,0.0025
3281.00,0.0025
3280.00,0.0025
3279.00,0.0025
3278.00,0.0025
3277.00,0.0025
3276.00,0.0025
3275.00,0.0025
3274.00,0.0025
3273.00,0.0026
3272.00,0.0026
3271.00,0.0026
3270.00,0.0026
3269.00,0.0026
3268.00,0.0026
3267.00,0.0026
3266.00,0.0026
3265.00,0.0026
3264.00,0.0026
3263.00,0.0027
3262.00,0.0027
3261.00,0.0027
3260.00,0.0027
3259.00,0.0027
3258.00,0.0027
3257.00,0.0027
3256.00,0.0027
3255.00,0.0027
3254.00,0.0028
3253.00,0.0028
3252.00,0.0028
3251.00,0.0028
3250.00,0.0028
3249.00,0.0027
3248.00,0.0027
3247.00,0.0026
3246.00,0.0026
3245.00,0.0026
3244.00,0.0026
3243.00,0.0027
3242.00,0.0027
3241.00,0.0027
3240.00,0.0026
3239.00,0.0026
3238.00,0.0026
3237.00,0.0026
3236.00,0.0025
3235.00,0.0025
3234.00,0.0025
3233.00,0.0025
3232.00,0.0025
3231.00,0.0025
3230.00,0.0025
3229.00,0.0025
3228.00,0.0025
3227.00,0.0025
3226.00,0.0024
3225.00,0.0024
3224.00,0.0024
3223.00,0.0024
3222.00,0.0024
3221.00,0.0024
3220.00,0.0024
3219.00,0.0024
3218.00,0.0024
3217.00,0.0024
3216.00,0.0024
3215.00,0.0024
3214.00,0.0024
3213.00,0.0024
3212.00,0.0024
3211.00,0.0024
3210.00,0.0024
3209.00,0.0024
3208.00,0.0024
3207.00,0.0024
3206.00,0.0024
3205.00,0.0024
3204.00,0.0024
3203.00,0.0024
3202.00,0.0024
3201.00,0.0024
3200.00,0.0024
3199.00,0.0023
3198.00,0.0023
3197.00,0.0023
3196.00,0.0022
3195.00,0.0022
3194.00,0.0022
3193.00,0.0022
3192.00,0.0022
3191.00,0.0022
3190.00,0.0022
3189.00,0.0021
3188.00,0.0021
3187.00,0.0021
3186.00,0.0020
3185.00,0.0020
3184.00,0.0020
3183.00,0.0020
3182.00,0.0020
3181.00,0.0020
3180.00,0.0019
3179.00,0.0019
3178.00,0.0019
3177.00,0.0019
3176.00,0.0019
3175.00,0.0019
3174.00,0.0019
3173.00,0.0019
3172.00,0.0018
3171.00,0.0018
3170.00,0.0018
3169.00,0.0018
3168.00,0.0018
3167.00,0.0018
3166.00,0.0018
3165.00,0.0018
3164.00,0.0018
3163.00,0.0018
3162.00,0.0018
3161.00,0.0018
3160.00,0.0018
3159.00,0.0019
3158.00,0.0019
3157.00,0.0019
3156.00,0.0019
3155.00,0.0019
3154.00,0.0020
3153.00,0.0019
3152.00,0.0019
3151.00,0.0020
3150.00,0.0020
3149.00,0.0020
3148.00,0.0020
3147.00,0.0019
3146.00,0.0019
3145.00,0.0019
3144.00,0.0019
3143.00,0.0019
3142.00,0.0019
3141.00,0.0019
3140.00,0.0018
3139.00,0.0018
3138.00,0.0018
3137.00,0.0018
3136.00,0.0018
3135.00,0.0018
3134.00,0.0018
3133.00,0.0017
3132.00,0.0017
3131.00,0.0017
3130.00,0.0017
3129.00,0.0017
3128.00,0.0017
3127.00,0.0016
3126.00,0.0016
3125.00,0.0016
3124.00,0.0015
3123.00,0.0015
3122.00,0.0015
3121.00,0.0015
3120.00,0.0015
3119.00,0.0015
3118.00,0.0015
3117.00,0.0015
3116.00,0.0015
3115.00,0.0014
3114.00,0.0014
3113.00,0.0014
3112.00,0.0014
3111.00,0.0014
3110.00,0.0014
3109.00,0.0014
3108.00,0.0014
3107.00,0.0014
3106.00,0.0014
3105.00,0.0014
3104.00,0.0014
3103.00,0.0014
3102.00,0.0015
3101.00,0.0015
3100.00,0.0015
3099.00,0.0015
3098.00,0.0015
3097.00,0.0015
3096.00,0.0015
3095.00,0.0016
3094.00,0.0016
3093.00,0.0016
3092.00,0.0017
3091.00,0.0017
3090.00,0.0017
3089.00,0.0017
3088.00,0.0017
3087.00,0.0017
3086.00,0.0017
3085.00,0.0017
3084.00,0.0017
3083.00,0.0017
3082.00,0.0017
3081.00,0.0017
3080.00,0.0017
3079.00,0.0018
3078.00,0.0018
3077.00,0.0019
3076.00,0.0020
3075.00,0.0021
3074.00,0.0022
3073.00,0.0024
3072.00,0.0025
3071.00,0.0027
3070.00,0.0029
3069.00,0.0030
3068.00,0.0030
3067.00,0.0030
3066.00,0.0029
3065.00,0.0028
3064.00,0.0028
3063.00,0.0028
3062.00,0.0027
3061.00,0.0028
3060.00,0.0028
3059.00,0.0029
3058.00,0.0030
3057.00,0.0031
3056.00,0.0032
3055.00,0.0033
3054.00,0.0033
3053.00,0.0033
3052.00,0.0033
3051.00,0.0032
3050.00,0.0031
3049.00,0.0030
3048.00,0.0029
3047.00,0.0027
3046.00,0.0026
3045.00,0.0024
3044.00,0.0023
3043.00,0.0023
3042.00,0.0022
3041.00,0.0021
3040.00,0.0021
3039.00,0.0020
3038.00,0.0020
3037.00,0.0020
3036.00,0.0020
3035.00,0.0020
3034.00,0.0020
3033.00,0.0020
3032.00,0.0020
3031.00,0.0020
3030.00,0.0020
3029.00,0.0019
3028.00,0.0019
3027.00,0.0019
3026.00,0.0019
3025.00,0.0019
3024.00,0.0019
3023.00,0.0019
3022.00,0.0019
3021.00,0.0019
3020.00,0.0019
3019.00,0.0020
3018.00,0.0020
3017.00,0.0020
3016.00,0.0020
3015.00,0.0020
3014.00,0.0020
3013.00,0.0021
3012.00,0.0021
3011.00,0.0021
3010.00,0.0022
3009.00,0.0022
3008.00,0.0022
3007.00,0.0023
3006.00,0.0023
3005.00,0.0023
3004.00,0.0023
3003.00,0.0023
3002.00,0.0024
3001.00,0.0024
3000.00,0.0024
2999.00,0.0025
2998.00,0.0025
2997.00,0.0026
2996.00,0.0027
2995.00,0.0027
2994.00,0.0028
2993.00,0.0029
2992.00,0.0029
2991.00,0.0030
2990.00,0.0031
2989.00,0.0032
2988.00,0.0033
2987.00,0.0034
2986.00,0.0035
2985.00,0.0036
2984.00,0.0037
2983.00,0.0037
2982.00,0.0038
2981.00,0.0039
2980.00,0.0041
2979.00,0.0043
2978.00,0.0046
2977.00,0.0048
2976.00,0.0051
2975.00,0.0053
2974.00,0.0055
2973.00,0.0058
2972.00,0.0060
2971.00,0.0063
2970.00,0.0067
2969.00,0.0070
2968.00,0.0075
2967.00,0.0079
2966.00,0.0084
2965.00,0.0089
2964.00,0.0095
2963.00,0.0101
2962.00,0.0107
2961.00,0.0114
2960.00,0.0121
2959.00,0.0129
2958.00,0.0138
2957.00,0.0147
2956.00,0.0158
2955.00,0.0169
2954.00,0.0182
2953.00,0.0196
2952.00,0.0211
2951.00,0.0227
2950.00,0.0246
2949.00,0.0266
2948.00,0.0288
2947.00,0.0313
2946.00,0.0342
2945.00,0.0374
2944.00,0.0410
2943.00,0.0450
2942.00,0.0497
2941.00,0.0550
2940.00,0.0611
2939.00,0.0683
2938.00,0.0765
2937.00,0.0859
2936.00,0.0964
2935.00,0.1079
2934.00,0.1200
2933.00,0.1321
2932.00,0.1438
2931.00,0.1544
2930.00,0.1641
2929.00,0.1732
2928.00,0.1823
2927.00,0.1922
2926.00,0.2037
2925.00,0.2172
2924.00,0.2332
2923.00,0.2517
2922.00,0.2726
2921.00,0.2954
2920.00,0.3188
2919.00,0.3412
2918.00,0.3604
2917.00,0.3740
2916.00,0.3805
2915.00,0.3793
2914.00,0.3714
2913.00,0.3585
2912.00,0.3425
2911.00,0.3254
2910.00,0.3085
2909.00,0.2929
2908.00,0.2790
2907.00,0.2672
2906.00,0.2573
2905.00,0.2492
2904.00,0.2422
2903.00,0.2357
2902.00,0.2291
2901.00,0.2219
2900.00,0.2136
2899.00,0.2045
2898.00,0.1948
2897.00,0.1850
2896.00,0.1755
2895.00,0.1666
2894.00,0.1581
2893.00,0.1498
2892.00,0.1416
2891.00,0.1334
2890.00,0.1257
2889.00,0.1188
2888.00,0.1128
2887.00,0.1078
2886.00,0.1035
2885.00,0.0996
2884.00,0.0957
2883.00,0.0913
2882.00,0.0865
2881.00,0.0813
2880.00,0.0761
2879.00,0.0712
2878.00,0.0666
2877.00,0.0626
2876.00,0.0591
2875.00,0.0562
2874.00,0.0536
2873.00,0.0516
2872.00,0.0500
2871.00,0.0489
2870.00,0.0483
2869.00,0.0482
2868.00,0.0486
2867.00,0.0497
2866.00,0.0515
2865.00,0.0540
2864.00,0.0576
2863.00,0.0623
2862.00,0.0685
2861.00,0.0766
2860.00,0.0868
2859.00,0.0998
2858.00,0.1158
2857.00,0.1351
2856.00,0.1571
2855.00,0.1807
2854.00,0.2044
2853.00,0.2262
2852.00,0.2446
2851.00,0.2589
2850.00,0.2690
2849.00,0.2751
2848.00,0.2770
2847.00,0.2744
2846.00,0.2674
2845.00,0.2560
2844.00,0.2411
2843.00,0.2237
2842.00,0.2047
2841.00,0.1853
2840.00,0.1661
2839.00,0.1477
2838.00,0.1304
2837.00,0.1146
2836.00,0.1003
2835.00,0.0877
2834.00,0.0766
2833.00,0.0669
2832.00,0.0586
2831.00,0.0515
2830.00,0.0454
2829.00,0.0402
2828.00,0.0359
2827.00,0.0322
2826.00,0.0291
2825.00,0.0265
2824.00,0.0243
2823.00,0.0225
2822.00,0.0210
2821.00,0.0197
2820.00,0.0186
2819.00,0.0177
2818.00,0.0170
2817.00,0.0163
2816.00,0.0159
2815.00,0.0155
2814.00,0.0154
2813.00,0.0153
2812.00,0.0153
2811.00,0.0152
2810.00,0.0150
2809.00,0.0147
2808.00,0.0143
2807.00,0.0138
2806.00,0.0133
2805.00,0.0129
2804.00,0.0124
2803.00,0.0120
2802.00,0.0116
2801.00,0.0113
2800.00,0.0111
2799.00,0.0110
2798.00,0.0111
2797.00,0.0113
2796.00,0.0115
2795.00,0.0117
2794.00,0.0119
2793.00,0.0119
2792.00,0.0118
2791.00,0.0116
2790.00,0.0113
2789.00,0.0108
2788.00,0.0103
2787.00,0.0098
2786.00,0.0093
2785.00,0.0088
2784.00,0.0083
2783.00,0.0079
2782.00,0.0076
2781.00,0.0073
2780.00,0.0070
2779.00,0.0068
2778.00,0.0066
2777.00,0.0065
2776.00,0.0063
2775.00,0.0062
2774.00,0.0060
2773.00,0.0059
2772.00,0.0057
2771.00,0.0055
2770.00,0.0053
2769.00,0.0052
2768.00,0.0050
2767.00,0.0048
2766.00,0.0046
2765.00,0.0044
2764.00,0.0043
2763.00,0.0042
2762.00,0.0041
2761.00,0.0040
2760.00,0.0039
2759.00,0.0038
2758.00,0.0037
2757.00,0.0036
2756.00,0.0036
2755.00,0.0035
2754.00,0.0035
2753.00,0.0035
2752.00,0.0035
2751.00,0.0035
2750.00,0.0035
2749.00,0.0035
2748.00,0.0035
2747.00,0.0034
2746.00,0.0033
2745.00,0.0032
2744.00,0.0031
2743.00,0.0030
2742.00,0.0029
2741.00,0.0028
2740.00,0.0028
2739.00,0.0027
2738.00,0.0027
2737.00,0.0027
2736.00,0.0027
2735.00,0.0027
2734.00,0.0027
2733.00,0.0027
2732.00,0.0027
2731.00,0.0027
2730.00,0.0027
2729.00,0.0027
2728.00,0.0027
2727.00,0.0027
2726.00,0.0027
2725.00,0.0028
2724.00,0.0029
2723.00,0.0029
2722.00,0.0030
2721.00,0.0031
2720.00,0.0032
2719.00,0.0033
2718.00,0.0033
2717.00,0.0034
2716.00,0.0034
2715.00,0.0035
2714.00,0.0036
2713.00,0.0038
2712.00,0.0040
2711.00,0.0042
2710.00,0.0045
2709.00,0.0048
2708.00,0.0050
2707.00,0.0050
2706.00,0.0050
2705.00,0.0049
2704.00,0.0047
2703.00,0.0045
2702.00,0.0044
2701.00,0.0043
2700.00,0.0043
2699.00,0.0045
2698.00,0.0047
2697.00,0.0051
2696.00,0.0054
2695.00,0.0057
2694.00,0.0059
2693.00,0.0058
2692.00,0.0056
2691.00,0.0053
2690.00,0.0050
2689.00,0.0047
2688.00,0.0045
2687.00,0.0044
2686.00,0.0044
2685.00,0.0044
2684.00,0.0045
2683.00,0.0046
2682.00,0.0047
2681.00,0.0048
2680.00,0.0048
2679.00,0.0049
2678.00,0.0049
2677.00,0.0050
2676.00,0.0049
2675.00,0.0049
2674.00,0.0049
2673.00,0.0050
2672.00,0.0052
2671.00,0.0056
2670.00,0.0063
2669.00,0.0071
2668.00,0.0081
2667.00,0.0091
2666.00,0.0099
2665.00,0.0106
2664.00,0.0111
2663.00,0.0116
2662.00,0.0120
2661.00,0.0124
2660.00,0.0124
2659.00,0.0122
2658.00,0.0116
2657.00,0.0107
2656.00,0.0096
2655.00,0.0085
2654.00,0.0076
2653.00,0.0067
2652.00,0.0061
2651.00,0.0055
2650.00,0.0050
2649.00,0.0047
2648.00,0.0044
2647.00,0.0041
2646.00,0.0039
2645.00,0.0038
2644.00,0.0037
2643.00,0.0037
2642.00,0.0037
2641.00,0.0038
2640.00,0.0039
2639.00,0.0040
2638.00,0.0042
2637.00,0.0045
2636.00,0.0049
2635.00,0.0053
2634.00,0.0057
2633.00,0.0060
2632.00,0.0061
2631.00,0.0059
2630.00,0.0055
2629.00,0.0050
2628.00,0.0044
2627.00,0.0040
2626.00,0.0037
2625.00,0.0034
2624.00,0.0033
2623.00,0.0032
2622.00,0.0032
2621.00,0.0033
2620.00,0.0034
2619.00,0.0035
2618.00,0.0036
2617.00,0.0036
2616.00,0.0035
2615.00,0.0035
2614.00,0.0035
2613.00,0.0034
2612.00,0.0034
2611.00,0.0033
2610.00,0.0032
2609.00,0.0031
2608.00,0.0030
2607.00,0.0030
2606.00,0.0031
2605.00,0.0032
2604.00,0.0033
2603.00,0.0034
2602.00,0.0035
2601.00,0.0035
2600.00,0.0035
2599.00,0.0035
2598.00,0.0035
2597.00,0.0034
2596.00,0.0033
2595.00,0.0032
2594.00,0.0031
2593.00,0.0030
2592.00,0.0030
2591.00,0.0030
2590.00,0.0030
2589.00,0.0031
2588.00,0.0031
2587.00,0.0032
2586.00,0.0032
2585.00,0.0033
2584.00,0.0033
2583.00,0.0034
2582.00,0.0035
2581.00,0.0036
2580.00,0.0037
2579.00,0.0036
2578.00,0.0035
2577.00,0.0034
2576.00,0.0032
2575.00,0.0029
2574.00,0.0027
2573.00,0.0025
2572.00,0.0023
2571.00,0.0022
2570.00,0.0020
2569.00,0.0019
2568.00,0.0018
2567.00,0.0018
2566.00,0.0017
2565.00,0.0017
2564.00,0.0017
2563.00,0.0016
2562.00,0.0016
2561.00,0.0016
2560.00,0.0016
2559.00,0.0016
2558.00,0.0016
2557.00,0.0016
2556.00,0.0016
2555.00,0.0016
2554.00,0.0015
2553.00,0.0015
2552.00,0.0015
2551.00,0.0016
2550.00,0.0016
2549.00,0.0016
2548.00,0.0015
2547.00,0.0015
2546.00,0.0014
2545.00,0.0014
2544.00,0.0013
2543.00,0.0012
2542.00,0.0012
2541.00,0.0012
2540.00,0.0012
2539.00,0.0012
2538.00,0.0012
2537.00,0.0012
2536.00,0.0013
2535.00,0.0013
2534.00,0.0013
2533.00,0.0013
2532.00,0.0013
2531.00,0.0013
2530.00,0.0013
2529.00,0.0013
2528.00,0.0013
2527.00,0.0012
2526.00,0.0012
2525.00,0.0011
2524.00,0.0011
2523.00,0.0010
2522.00,0.0010
2521.00,0.0010
2520.00,0.0010
2519.00,0.0010
2518.00,0.0009
2517.00,0.0009
2516.00,0.0009
2515.00,0.0010
2514.00,0.0010
2513.00,0.0011
2512.00,0.0011
2511.00,0.0011
2510.00,0.0011
2509.00,0.0011
2508.00,0.0011
2507.00,0.0012
2506.00,0.0012
2505.00,0.0012
2504.00,0.0013
2503.00,0.0014
2502.00,0.0015
2501.00,0.0016
2500.00,0.0016
2499.00,0.0017
2498.00,0.0018
2497.00,0.0018
2496.00,0.0017
2495.00,0.0016
2494.00,0.0015
2493.00,0.0014
2492.00,0.0013
2491.00,0.0013
2490.00,0.0013
2489.00,0.0012
2488.00,0.0012
2487.00,0.0012
2486.00,0.0012
2485.00,0.0011
2484.00,0.0011
2483.00,0.0010
2482.00,0.0010
2481.00,0.0010
2480.00,0.0010
2479.00,0.0010
2478.00,0.0011
2477.00,0.0011
2476.00,0.0012
2475.00,0.0012
2474.00,0.0013
2473.00,0.0014
2472.00,0.0014
2471.00,0.0014
2470.00,0.0014
2469.00,0.0013
2468.00,0.0012
2467.00,0.0011
2466.00,0.0010
2465.00,0.0009
2464.00,0.0009
2463.00,0.0008
2462.00,0.0008
2461.00,0.0007
2460.00,0.0007
2459.00,0.0007
2458.00,0.0008
2457.00,0.0008
2456.00,0.0007
2455.00,0.0007
2454.00,0.0006
2453.00,0.0006
2452.00,0.0006
2451.00,0.0006
2450.00,0.0006
2449.00,0.0006
2448.00,0.0007
2447.00,0.0007
2446.00,0.0007
2445.00,0.0007
2444.00,0.0007
2443.00,0.0007
2442.00,0.0008
2441.00,0.0008
2440.00,0.0009
2439.00,0.0009
2438.00,0.0010
2437.00,0.0010
2436.00,0.0010
2435.00,0.0010
2434.00,0.0010
2433.00,0.0010
2432.00,0.0010
2431.00,0.0010
2430.00,0.0010
2429.00,0.0010
2428.00,0.0009
2427.00,0.0009
2426.00,0.0009
2425.00,0.0009
2424.00,0.0009
2423.00,0.0009
2422.00,0.0009
2421.00,0.0009
2420.00,0.0009
2419.00,0.0010
2418.00,0.0010
2417.00,0.0011
2416.00,0.0011
2415.00,0.0011
2414.00,0.0011
2413.00,0.0011
2412.00,0.0011
2411.00,0.0011
2410.00,0.0010
2409.00,0.0009
2408.00,0.0009
2407.00,0.0008
2406.00,0.0008
2405.00,0.0007
2404.00,0.0008
2403.00,0.0007
2402.00,0.0007
2401.00,0.0007
2400.00,0.0006
2399.00,0.0006
2398.00,0.0006
2397.00,0.0007
2396.00,0.0007
2395.00,0.0008
2394.00,0.0009
2393.00,0.0011
2392.00,0.0012
2391.00,0.0014
2390.00,0.0015
2389.00,0.0016
2388.00,0.0017
2387.00,0.0017
2386.00,0.0016
2385.00,0.0015
2384.00,0.0013
2383.00,0.0012
2382.00,0.0010
2381.00,0.0009
2380.00,0.0008
2379.00,0.0008
2378.00,0.0009
2377.00,0.0009
2376.00,0.0010
2375.00,0.0010
2374.00,0.0010
2373.00,0.0011
2372.00,0.0010
2371.00,0.0010
2370.00,0.0010
2369.00,0.0010
2368.00,0.0009
2367.00,0.0009
2366.00,0.0009
2365.00,0.0009
2364.00,0.0010
2363.00,0.0011
2362.00,0.0011
2361.00,0.0012
2360.00,0.0012
2359.00,0.0011
2358.00,0.0011
2357.00,0.0010
2356.00,0.0010
2355.00,0.0011
2354.00,0.0011
2353.00,0.0011
2352.00,0.0011
2351.00,0.0011
2350.00,0.0012
2349.00,0.0012
2348.00,0.0012
2347.00,0.0013
2346.00,0.0014
2345.00,0.0014
2344.00,0.0014
2343.00,0.0014
2342.00,0.0014
2341.00,0.0014
2340.00,0.0014
2339.00,0.0014
2338.00,0.0014
2337.00,0.0015
2336.00,0.0015
2335.00,0.0015
2334.00,0.0015
2333.00,0.0015
2332.00,0.0015
2331.00,0.0015
2330.00,0.0015
2329.00,0.0016
2328.00,0.0017
2327.00,0.0020
2326.00,0.0023
2325.00,0.0024
2324.00,0.0024
2323.00,0.0024
2322.00,0.0022
2321.00,0.0021
2320.00,0.0020
2319.00,0.0019
2318.00,0.0018
2317.00,0.0018
2316.00,0.0018
2315.00,0.0017
2314.00,0.0017
2313.00,0.0016
2312.00,0.0016
2311.00,0.0016
2310.00,0.0016
2309.00,0.0016
2308.00,0.0016
2307.00,0.0016
2306.00,0.0016
2305.00,0.0016
2304.00,0.0016
2303.00,0.0016
2302.00,0.0015
2301.00,0.0015
2300.00,0.0015
2299.00,0.0014
2298.00,0.0014
2297.00,0.0014
2296.00,0.0014
2295.00,0.0015
2294.00,0.0015
2293.00,0.0015
2292.00,0.0016
2291.00,0.0017
2290.00,0.0017
2289.00,0.0018
2288.00,0.0019
2287.00,0.0019
2286.00,0.0020
2285.00,0.0020
2284.00,0.0020
2283.00,0.0020
2282.00,0.0020
2281.00,0.0019
2280.00,0.0018
2279.00,0.0017
2278.00,0.0016
2277.00,0.0015
2276.00,0.0014
2275.00,0.0013
2274.00,0.0013
2273.00,0.0013
2272.00,0.0013
2271.00,0.0012
2270.00,0.0012
2269.00,0.0011
2268.00,0.0011
2267.00,0.0010
2266.00,0.0010
2265.00,0.0009
2264.00,0.0008
2263.00,0.0008
2262.00,0.0008
2261.00,0.0009
2260.00,0.0009
2259.00,0.0009
2258.00,0.0009
2257.00,0.0008
2256.00,0.0008
2255.00,0.0007
2254.00,0.0007
2253.00,0.0007
2252.00,0.0007
2251.00,0.0008
2250.00,0.0008
2249.00,0.0008
2248.00,0.0008
2247.00,0.0008
2246.00,0.0007
2245.00,0.0007
2244.00,0.0008
2243.00,0.0008
2242.00,0.0008
2241.00,0.0008
2240.00,0.0008
2239.00,0.0009
2238.00,0.0008
2237.00,0.0008
2236.00,0.0008
2235.00,0.0007
2234.00,0.0007
2233.00,0.0007
2232.00,0.0007
2231.00,0.0007
2230.00,0.0006
2229.00,0.0006
2228.00,0.0005
2227.00,0.0005
2226.00,0.0006
2225.00,0.0006
2224.00,0.0007
2223.00,0.0007
2222.00,0.0008
2221.00,0.0008
2220.00,0.0008
2219.00,0.0008
2218.00,0.0008
2217.00,0.0008
2216.00,0.0008
2215.00,0.0008
2214.00,0.0009
2213.00,0.0009
2212.00,0.0009
2211.00,0.0009
2210.00,0.0009
2209.00,0.0010
2208.00,0.0010
2207.00,0.0011
2206.00,0.0012
2205.00,0.0012
2204.00,0.0013
2203.00,0.0014
2202.00,0.0014
2201.00,0.0014
2200.00,0.0013
2199.00,0.0012
2198.00,0.0011
2197.00,0.0010
2196.00,0.0009
2195.00,0.0009
2194.00,0.0009
2193.00,0.0009
2192.00,0.0009
2191.00,0.0009
2190.00,0.0009
2189.00,0.0010
2188.00,0.0011
2187.00,0.0013
2186.00,0.0014
2185.00,0.0014
2184.00,0.0014
2183.00,0.0013
2182.00,0.0011
2181.00,0.0010
2180.00,0.0010
2179.00,0.0009
2178.00,0.0009
2177.00,0.0007
2176.00,0.0006
2175.00,0.0006
2174.00,0.0006
2173.00,0.0008
2172.00,0.0009
2171.00,0.0011
2170.00,0.0012
2169.00,0.0013
2168.00,0.0014
2167.00,0.0014
2166.00,0.0013
2165.00,0.0013
2164.00,0.0014
2163.00,0.0013
2162.00,0.0011
2161.00,0.0004
2160.00,-0.0005
2159.00,-0.0014
2158.00,-0.0020
2157.00,-0.0021
2156.00,-0.0019
2155.00,-0.0017
2154.00,-0.0014
2153.00,-0.0012
2152.00,-0.0011
2151.00,-0.0011
2150.00,-0.0010
2149.00,-0.0010
2148.00,-0.0010
2147.00,-0.0010
2146.00,-0.0010
2145.00,-0.0011
2144.00,-0.0011
2143.00,-0.0010
2142.00,-0.0010
2141.00,-0.0008
2140.00,-0.0008
2139.00,-0.0008
2138.00,-0.0009
2137.00,-0.0011
2136.00,-0.0013
2135.00,-0.0014
2134.00,-0.0014
2133.00,-0.0013
2132.00,-0.0011
2131.00,-0.0009
2130.00,-0.0007
2129.00,-0.0006
2128.00,-0.0005
2127.00,-0.0004
2126.00,-0.0004
2125.00,-0.0003
2124.00,-0.0003
2123.00,-0.0003
2122.00,-0.0002
2121.00,-0.0002
2120.00,-0.0001
2119.00,-0.0001
2118.00,-0.0000
2117.00,0.0001
2116.00,0.0001
2115.00,0.0001
2114.00,0.0001
2113.00,0.0001
2112.00,0.0000
2111.00,-0.0000
2110.00,-0.0001
2109.00,-0.0001
2108.00,-0.0000
2107.00,0.0000
2106.00,0.0000
2105.00,0.0000
2104.00,0.0000
2103.00,0.0000
2102.00,0.0001
2101.00,0.0001
2100.00,0.0002
2099.00,0.0001
2098.00,0.0001
2097.00,-0.0000
2096.00,-0.0001
2095.00,-0.0000
2094.00,0.0000
2093.00,0.0001
2092.00,0.0002
2091.00,0.0003
2090.00,0.0003
2089.00,0.0003
2088.00,0.0004
2087.00,0.0004
2086.00,0.0004
2085.00,0.0004
2084.00,0.0005
2083.00,0.0005
2082.00,0.0005
2081.00,0.0005
2080.00,0.0005
2079.00,0.0005
2078.00,0.0005
2077.00,0.0004
2076.00,0.0004
2075.00,0.0003
2074.00,0.0002
2073.00,0.0002
2072.00,0.0002
2071.00,0.0002
2070.00,0.0003
2069.00,0.0003
2068.00,0.0003
2067.00,0.0002
2066.00,0.0002
2065.00,0.0002
2064.00,0.0002
2063.00,0.0002
2062.00,0.0003
2061.00,0.0003
2060.00,0.0003
2059.00,0.0003
2058.00,0.0003
2057.00,0.0004
2056.00,0.0005
2055.00,0.0006
2054.00,0.0008
2053.00,0.0011
2052.00,0.0014
2051.00,0.0014
2050.00,0.0012
2049.00,0.0008
2048.00,0.0006
2047.00,0.0004
2046.00,0.0003
2045.00,0.0003
2044.00,0.0002
2043.00,0.0002
2042.00,0.0001
2041.00,0.0001
2040.00,0.0002
2039.00,0.0003
2038.00,0.0003
2037.00,0.0002
2036.00,0.0001
2035.00,-0.0000
2034.00,-0.0001
2033.00,-0.0001
2032.00,-0.0001
2031.00,-0.0001
2030.00,-0.0001
2029.00,-0.0003
2028.00,-0.0005
2027.00,-0.0007
2026.00,-0.0007
2025.00,-0.0007
2024.00,-0.0006
2023.00,-0.0004
2022.00,-0.0003
2021.00,-0.0002
2020.00,-0.0000
2019.00,0.0001
2018.00,0.0001
2017.00,0.0001
2016.00,0.0001
2015.00,0.0000
2014.00,-0.0001
2013.00,-0.0002
2012.00,-0.0002
2011.00,-0.0002
2010.00,-0.0002
2009.00,-0.0002
2008.00,-0.0004
2007.00,-0.0006
2006.00,-0.0009
2005.00,-0.0010
2004.00,-0.0009
2003.00,-0.0007
2002.00,-0.0005
2001.00,-0.0003
2000.00,-0.0003
1999.00,-0.0003
1998.00,-0.0003
1997.00,-0.0004
1996.00,-0.0004
1995.00,-0.0004
1994.00,-0.0004
1993.00,-0.0002
1992.00,-0.0001
1991.00,0.0001
1990.00,0.0003
1989.00,0.0005
1988.00,0.0007
1987.00,0.0008
1986.00,0.0009
1985.00,0.0009
1984.00,0.0009
1983.00,0.0010
1982.00,0.0011
1981.00,0.0012
1980.00,0.0011
1979.00,0.0007
1978.00,0.0002
1977.00,-0.0003
1976.00,-0.0005
1975.00,-0.0007
1974.00,-0.0008
1973.00,-0.0008
1972.00,-0.0008
1971.00,-0.0008
1970.00,-0.0008
1969.00,-0.0008
1968.00,-0.0008
1967.00,-0.0008
1966.00,-0.0008
1965.00,-0.0008
1964.00,-0.0008
1963.00,-0.0010
1962.00,-0.0011
1961.00,-0.0012
1960.00,-0.0013
1959.00,-0.0014
1958.00,-0.0013
1957.00,-0.0012
1956.00,-0.0011
1955.00,-0.0009
1954.00,-0.0008
1953.00,-0.0006
1952.00,-0.0005
1951.00,-0.0005
1950.00,-0.0005
1949.00,-0.0006
1948.00,-0.0007
1947.00,-0.0008
1946.00,-0.0009
1945.00,-0.0010
1944.00,-0.0010
1943.00,-0.0009
1942.00,-0.0009
1941.00,-0.0008
1940.00,-0.0006
1939.00,-0.0005
1938.00,-0.0005
1937.00,-0.0004
1936.00,-0.0004
1935.00,-0.0003
1934.00,-0.0003
1933.00,-0.0003
1932.00,-0.0002
1931.00,-0.0002
1930.00,-0.0001
1929.00,-0.0001
1928.00,-0.0001
1927.00,-0.0001
1926.00,-0.0002
1925.00,-0.0003
1924.00,-0.0003
1923.00,-0.0003
1922.00,-0.0003
1921.00,-0.0003
1920.00,-0.0002
1919.00,-0.0002
1918.00,-0.0002
1917.00,-0.0001
1916.00,-0.0001
1915.00,-0.0000
1914.00,0.0000
1913.00,0.0001
1912.00,0.0001
1911.00,0.0002
1910.00,0.0002
1909.00,0.0002
1908.00,0.0002
1907.00,0.0002
1906.00,0.0001
1905.00,0.0000
1904.00,-0.0000
1903.00,-0.0001
1902.00,-0.0001
1901.00,-0.0001
1900.00,-0.0001
1899.00,-0.0001
1898.00,-0.0001
1897.00,0.0000
1896.00,0.0001
1895.00,0.0001
1894.00,0.0001
1893.00,0.0001
1892.00,0.0001
1891.00,0.0001
1890.00,0.0001
1889.00,0.0000
1888.00,0.0000
1887.00,0.0000
1886.00,0.0000
1885.00,-0.0000
1884.00,-0.0000
1883.00,-0.0000
1882.00,-0.0001
1881.00,-0.0001
1880.00,-0.0001
1879.00,-0.0001
1878.00,-0.0001
1877.00,-0.0000
1876.00,0.0000
1875.00,0.0000
1874.00,0.0001
1873.00,0.0001
1872.00,0.0001
1871.00,0.0001
1870.00,0.0000
1869.00,-0.0000
1868.00,-0.0000
1867.00,0.0000
1866.00,0.0001
1865.00,0.0001
1864.00,0.0002
1863.00,0.0002
1862.00,0.0002
1861.00,0.0002
1860.00,0.0002
1859.00,0.0002
1858.00,0.0002
1857.00,0.0001
1856.00,0.0001
1855.00,0.0000
1854.00,-0.0000
1853.00,-0.0000
1852.00,-0.0001
1851.00,-0.0001
1850.00,-0.0002
1849.00,-0.0002
1848.00,-0.0002
1847.00,-0.0002
1846.00,-0.0002
1845.00,-0.0001
1844.00,0.0000
1843.00,0.0001
1842.00,0.0001
1841.00,0.0002
1840.00,0.0002
1839.00,0.0002
1838.00,0.0002
1837.00,0.0002
1836.00,0.0001
1835.00,0.0002
1834.00,0.0002
1833.00,0.0003
1832.00,0.0004
1831.00,0.0004
1830.00,0.0003
1829.00,0.0003
1828.00,0.0003
1827.00,0.0003
1826.00,0.0003
1825.00,0.0003
1824.00,0.0004
1823.00,0.0004
1822.00,0.0004
1821.00,0.0003
1820.00,0.0003
1819.00,0.0002
1818.00,0.0002
1817.00,0.0002
1816.00,0.0002
1815.00,0.0003
1814.00,0.0004
1813.00,0.0005
1812.00,0.0005
1811.00,0.0005
1810.00,0.0006
1809.00,0.0006
1808.00,0.0007
1807.00,0.0007
1806.00,0.0007
1805.00,0.0008
1804.00,0.0009
1803.00,0.0009
1802.00,0.0009
1801.00,0.0009
1800.00,0.0010
1799.00,0.0010
1798.00,0.0010
1797.00,0.0010
1796.00,0.0010
1795.00,0.0010
1794.00,0.0010
1793.00,0.0009
1792.00,0.0009
1791.00,0.0009
1790.00,0.0009
1789.00,0.0008
1788.00,0.0008
1787.00,0.0007
1786.00,0.0007
1785.00,0.0006
1784.00,0.0006
1783.00,0.0006
1782.00,0.0005
1781.00,0.0005
1780.00,0.0005
1779.00,0.0005
1778.00,0.0004
1777.00,0.0004
1776.00,0.0004
1775.00,0.0004
1774.00,0.0004
1773.00,0.0005
1772.00,0.0005
1771.00,0.0006
1770.00,0.0006
1769.00,0.0007
1768.00,0.0007
1767.00,0.0006
1766.00,0.0006
1765.00,0.0006
1764.00,0.0006
1763.00,0.0006
1762.00,0.0006
1761.00,0.0006
1760.00,0.0006
1759.00,0.0006
1758.00,0.0007
1757.00,0.0007
1756.00,0.0007
1755.00,0.0007
1754.00,0.0007
1753.00,0.0007
1752.00,0.0008
1751.00,0.0008
1750.00,0.0008
1749.00,0.0008
1748.00,0.0007
1747.00,0.0007
1746.00,0.0007
1745.00,0.0007
1744.00,0.0008
1743.00,0.0008
1742.00,0.0008
1741.00,0.0008
1740.00,0.0008
1739.00,0.0008
1738.00,0.0007
1737.00,0.0007
1736.00,0.0007
1735.00,0.0006
1734.00,0.0006
1733.00,0.0005
1732.00,0.0005
1731.00,0.0005
1730.00,0.0004
1729.00,0.0004
1728.00,0.0005
1727.00,0.0005
1726.00,0.0006
1725.00,0.0006
1724.00,0.0007
1723.00,0.0007
1722.00,0.0008
1721.00,0.0009
1720.00,0.0009
1719.00,0.0009
1718.00,0.0009
1717.00,0.0009
1716.00,0.0009
1715.00,0.0010
1714.00,0.0010
1713.00,0.0010
1712.00,0.0010
1711.00,0.0010
1710.00,0.0010
1709.00,0.0010
1708.00,0.0010
1707.00,0.0010
1706.00,0.0010
1705.00,0.0010
1704.00,0.0010
1703.00,0.0010
1702.00,0.0009
1701.00,0.0008
1700.00,0.0008
1699.00,0.0008
1698.00,0.0008
1697.00,0.0008
1696.00,0.0008
1695.00,0.0009
1694.00,0.0009
1693.00,0.0009
1692.00,0.0009
1691.00,0.0009
1690.00,0.0009
1689.00,0.0009
1688.00,0.0009
1687.00,0.0009
1686.00,0.0009
1685.00,0.0009
1684.00,0.0009
1683.00,0.0010
1682.00,0.0010
1681.00,0.0010
1680.00,0.0010
1679.00,0.0010
1678.00,0.0010
1677.00,0.0011
1676.00,0.0011
1675.00,0.0011
1674.00,0.0012
1673.00,0.0012
1672.00,0.0012
1671.00,0.0013
1670.00,0.0013
1669.00,0.0013
1668.00,0.0013
1667.00,0.0013
1666.00,0.0013
1665.00,0.0012
1664.00,0.0012
1663.00,0.0012
1662.00,0.0012
1661.00,0.0012
1660.00,0.0013
1659.00,0.0013
1658.00,0.0014
1657.00,0.0014
1656.00,0.0015
1655.00,0.0015
1654.00,0.0014
1653.00,0.0012
1652.00,0.0012
1651.00,0.0012
1650.00,0.0011
1649.00,0.0011
1648.00,0.0011
1647.00,0.0011
1646.00,0.0011
1645.00,0.0011
1644.00,0.0011
1643.00,0.0011
1642.00,0.0011
1641.00,0.0011
1640.00,0.0011
1639.00,0.0011
1638.00,0.0011
1637.00,0.0011
1636.00,0.0011
1635.00,0.0012
1634.00,0.0012
1633.00,0.0012
1632.00,0.0012
1631.00,0.0012
1630.00,0.0012
1629.00,0.0012
1628.00,0.0012
1627.00,0.0012
1626.00,0.0012
1625.00,0.0012
1624.00,0.0012
1623.00,0.0012
1622.00,0.0012
1621.00,0.0012
1620.00,0.0012
1619.00,0.0012
1618.00,0.0012
1617.00,0.0012
1616.00,0.0012
1615.00,0.0012
1614.00,0.0012
1613.00,0.0012
1612.00,0.0012
1611.00,0.0012
1610.00,0.0012
1609.00,0.0012
1608.00,0.0012
1607.00,0.0012
1606.00,0.0013
1605.00,0.0013
1604.00,0.0014
1603.00,0.0014
1602.00,0.0016
1601.00,0.0018
1600.00,0.0020
1599.00,0.0023
1598.00,0.0025
1597.00,0.0025
1596.00,0.0023
1595.00,0.0021
1594.00,0.0019
1593.00,0.0018
1592.00,0.0017
1591.00,0.0017
1590.00,0.0017
1589.00,0.0017
1588.00,0.0017
1587.00,0.0017
1586.00,0.0017
1585.00,0.0017
1584.00,0.0017
1583.00,0.0017
1582.00,0.0017
1581.00,0.0017
1580.00,0.0017
1579.00,0.0017
1578.00,0.0017
1577.00,0.0016
1576.00,0.0016
1575.00,0.0016
1574.00,0.0016
1573.00,0.0015
1572.00,0.0015
1571.00,0.0014
1570.00,0.0014
1569.00,0.0013
1568.00,0.0013
1567.00,0.0013
1566.00,0.0012
1565.00,0.0012
1564.00,0.0012
1563.00,0.0012
1562.00,0.0012
1561.00,0.0012
1560.00,0.0012
1559.00,0.0012
1558.00,0.0013
1557.00,0.0014
1556.00,0.0015
1555.00,0.0015
1554.00,0.0015
1553.00,0.0015
1552.00,0.0016
1551.00,0.0016
1550.00,0.0016
1549.00,0.0016
1548.00,0.0016
1547.00,0.0016
1546.00,0.0017
1545.00,0.0017
1544.00,0.0017
1543.00,0.0018
1542.00,0.0018
1541.00,0.0018
1540.00,0.0018
1539.00,0.0018
1538.00,0.0018
1537.00,0.0018
1536.00,0.0018
1535.00,0.0017
1534.00,0.0017
1533.00,0.0017
1532.00,0.0017
1531.00,0.0018
1530.00,0.0018
1529.00,0.0019
1528.00,0.0020
1527.00,0.0021
1526.00,0.0022
1525.00,0.0022
1524.00,0.0022
1523.00,0.0022
1522.00,0.0022
1521.00,0.0022
1520.00,0.0022
1519.00,0.0022
1518.00,0.0023
1517.00,0.0023
1516.00,0.0025
1515.00,0.0027
1514.00,0.0030
1513.00,0.0034
1512.00,0.0039
1511.00,0.0042
1510.00,0.0043
1509.00,0.0042
1508.00,0.0040
1507.00,0.0037
1506.00,0.0035
1505.00,0.0034
1504.00,0.0034
1503.00,0.0034
1502.00,0.0033
1501.00,0.0032
1500.00,0.0032
1499.00,0.0033
1498.00,0.0033
1497.00,0.0034
1496.00,0.0035
1495.00,0.0036
1494.00,0.0036
1493.00,0.0037
1492.00,0.0038
1491.00,0.0038
1490.00,0.0039
1489.00,0.0040
1488.00,0.0041
1487.00,0.0042
1486.00,0.0044
1485.00,0.0045
1484.00,0.0047
1483.00,0.0048
1482.00,0.0049
1481.00,0.0051
1480.00,0.0053
1479.00,0.0054
1478.00,0.0056
1477.00,0.0058
1476.00,0.0061
1475.00,0.0063
1474.00,0.0066
1473.00,0.0070
1472.00,0.0075
1471.00,0.0080
1470.00,0.0086
1469.00,0.0093
1468.00,0.0101
1467.00,0.0112
1466.00,0.0126
1465.00,0.0146
1464.00,0.0174
1463.00,0.0213
1462.00,0.0263
1461.00,0.0322
1460.00,0.0380
1459.00,0.0422
1458.00,0.0436
1457.00,0.0425
1456.00,0.0418
1455.00,0.0441
1454.00,0.0508
1453.00,0.0633
1452.00,0.0827
1451.00,0.1076
1450.00,0.1338
1449.00,0.1552
1448.00,0.1663
1447.00,0.1652
1446.00,0.1547
1445.00,0.1385
1444.00,0.1193
1443.00,0.0994
1442.00,0.0812
1441.00,0.0661
1440.00,0.0546
1439.00,0.0458
1438.00,0.0388
1437.00,0.0328
1436.00,0.0278
1435.00,0.0241
1434.00,0.0214
1433.00,0.0193
1432.00,0.0174
1431.00,0.0157
1430.00,0.0143
1429.00,0.0131
1428.00,0.0122
1427.00,0.0114
1426.00,0.0107
1425.00,0.0101
1424.00,0.0096
1423.00,0.0091
1422.00,0.0089
1421.00,0.0087
1420.00,0.0085
1419.00,0.0084
1418.00,0.0084
1417.00,0.0083
1416.00,0.0081
1415.00,0.0078
1414.00,0.0075
1413.00,0.0071
1412.00,0.0067
1411.00,0.0064
1410.00,0.0062
1409.00,0.0060
1408.00,0.0058
1407.00,0.0057
1406.00,0.0057
1405.00,0.0056
1404.00,0.0055
1403.00,0.0055
1402.00,0.0054
1401.00,0.0054
1400.00,0.0053
1399.00,0.0052
1398.00,0.0051
1397.00,0.0051
1396.00,0.0050
1395.00,0.0051
1394.00,0.0052
1393.00,0.0054
1392.00,0.0058
1391.00,0.0062
1390.00,0.0065
1389.00,0.0068
1388.00,0.0068
1387.00,0.0067
1386.00,0.0065
1385.00,0.0062
1384.00,0.0060
1383.00,0.0057
1382.00,0.0055
1381.00,0.0053
1380.00,0.0052
1379.00,0.0052
1378.00,0.0051
1377.00,0.0051
1376.00,0.0051
1375.00,0.0052
1374.00,0.0052
1373.00,0.0053
1372.00,0.0054
1371.00,0.0054
1370.00,0.0055
1369.00,0.0056
1368.00,0.0058
1367.00,0.0059
1366.00,0.0062
1365.00,0.0064
1364.00,0.0067
1363.00,0.0069
1362.00,0.0071
1361.00,0.0072
1360.00,0.0073
1359.00,0.0073
1358.00,0.0074
1357.00,0.0076
1356.00,0.0079
1355.00,0.0083
1354.00,0.0088
1353.00,0.0097
1352.00,0.0109
1351.00,0.0130
1350.00,0.0161
1349.00,0.0202
1348.00,0.0244
1347.00,0.0269
1346.00,0.0267
1345.00,0.0237
1344.00,0.0195
1343.00,0.0155
1342.00,0.0127
1341.00,0.0110
1340.00,0.0102
1339.00,0.0100
1338.00,0.0105
1337.00,0.0115
1336.00,0.0134
1335.00,0.0160
1334.00,0.0186
1333.00,0.0199
1332.00,0.0190
1331.00,0.0164
1330.00,0.0134
1329.00,0.0108
1328.00,0.0089
1327.00,0.0078
1326.00,0.0070
1325.00,0.0064
1324.00,0.0061
1323.00,0.0058
1322.00,0.0057
1321.00,0.0056
1320.00,0.0055
1319.00,0.0056
1318.00,0.0057
1317.00,0.0058
1316.00,0.0059
1315.00,0.0062
1314.00,0.0065
1313.00,0.0071
1312.00,0.0081
1311.00,0.0096
1310.00,0.0119
1309.00,0.0148
1308.00,0.0177
1307.00,0.0196
1306.00,0.0197
1305.00,0.0181
1304.00,0.0154
1303.00,0.0127
1302.00,0.0105
1301.00,0.0089
1300.00,0.0078
1299.00,0.0071
1298.00,0.0066
1297.00,0.0062
1296.00,0.0059
1295.00,0.0057
1294.00,0.0055
1293.00,0.0054
1292.00,0.0052
1291.00,0.0051
1290.00,0.0051
1289.00,0.0050
1288.00,0.0050
1287.00,0.0050
1286.00,0.0050
1285.00,0.0050
1284.00,0.0050
1283.00,0.0050
1282.00,0.0050
1281.00,0.0049
1280.00,0.0049
1279.00,0.0050
1278.00,0.0050
1277.00,0.0050
1276.00,0.0050
1275.00,0.0051
1274.00,0.0052
1273.00,0.0052
1272.00,0.0053
1271.00,0.0054
1270.00,0.0057
1269.00,0.0060
1268.00,0.0063
1267.00,0.0063
1266.00,0.0062
1265.00,0.0059
1264.00,0.0056
1263.00,0.0054
1262.00,0.0055
1261.00,0.0057
1260.00,0.0060
1259.00,0.0066
1258.00,0.0077
1257.00,0.0095
1256.00,0.0123
1255.00,0.0162
1254.00,0.0201
1253.00,0.0225
1252.00,0.0223
1251.00,0.0196
1250.00,0.0157
1249.00,0.0120
1248.00,0.0093
1247.00,0.0076
1246.00,0.0066
1245.00,0.0061
1244.00,0.0057
1243.00,0.0055
1242.00,0.0054
1241.00,0.0053
1240.00,0.0053
1239.00,0.0053
1238.00,0.0054
1237.00,0.0055
1236.00,0.0057
1235.00,0.0058
1234.00,0.0060
1233.00,0.0063
1232.00,0.0066
1231.00,0.0072
1230.00,0.0080
1229.00,0.0092
1228.00,0.0109
1227.00,0.0129
1226.00,0.0147
1225.00,0.0158
1224.00,0.0157
1223.00,0.0145
1222.00,0.0126
1221.00,0.0107
1220.00,0.0089
1219.00,0.0076
1218.00,0.0066
1217.00,0.0059
1216.00,0.0054
1215.00,0.0051
1214.00,0.0049
1213.00,0.0047
1212.00,0.0047
1211.00,0.0047
1210.00,0.0046
1209.00,0.0046
1208.00,0.0044
1207.00,0.0043
1206.00,0.0041
1205.00,0.0041
1204.00,0.0040
1203.00,0.0040
1202.00,0.0039
1201.00,0.0039
1200.00,0.0037
1199.00,0.0036
1198.00,0.0035
1197.00,0.0034
1196.00,0.0034
1195.00,0.0033
1194.00,0.0033
1193.00,0.0032
1192.00,0.0032
1191.00,0.0031
1190.00,0.0031
1189.00,0.0030
1188.00,0.0030
1187.00,0.0029
1186.00,0.0029
1185.00,0.0029
1184.00,0.0029
1183.00,0.0029
1182.00,0.0029
1181.00,0.0029
1180.00,0.0030
1179.00,0.0030
1178.00,0.0030
1177.00,0.0030
1176.00,0.0030
1175.00,0.0031
1174.00,0.0031
1173.00,0.0031
1172.00,0.0032
1171.00,0.0032
1170.00,0.0033
1169.00,0.0034
1168.00,0.0035
1167.00,0.0036
1166.00,0.0037
1165.00,0.0039
1164.00,0.0041
1163.00,0.0044
1162.00,0.0046
1161.00,0.0049
1160.00,0.0052
1159.00,0.0055
1158.00,0.0060
1157.00,0.0068
1156.00,0.0078
1155.00,0.0088
1154.00,0.0094
1153.00,0.0093
1152.00,0.0088
1151.00,0.0081
1150.00,0.0077
1149.00,0.0074
1148.00,0.0075
1147.00,0.0076
1146.00,0.0079
1145.00,0.0085
1144.00,0.0093
1143.00,0.0108
1142.00,0.0132
1141.00,0.0165
1140.00,0.0199
1139.00,0.0221
1138.00,0.0220
1137.00,0.0197
1136.00,0.0163
1135.00,0.0131
1134.00,0.0106
1133.00,0.0090
1132.00,0.0080
1131.00,0.0074
1130.00,0.0071
1129.00,0.0069
1128.00,0.0068
1127.00,0.0066
1126.00,0.0063
1125.00,0.0061
1124.00,0.0058
1123.00,0.0057
1122.00,0.0057
1121.00,0.0057
1120.00,0.0057
1119.00,0.0057
1118.00,0.0057
1117.00,0.0057
1116.00,0.0057
1115.00,0.0057
1114.00,0.0059
1113.00,0.0060
1112.00,0.0061
1111.00,0.0061
1110.00,0.0062
1109.00,0.0061
1108.00,0.0061
1107.00,0.0061
1106.00,0.0061
1105.00,0.0061
1104.00,0.0061
1103.00,0.0060
1102.00,0.0059
1101.00,0.0058
1100.00,0.0056
1099.00,0.0054
1098.00,0.0053
1097.00,0.0051
1096.00,0.0050
1095.00,0.0049
1094.00,0.0048
1093.00,0.0047
1092.00,0.0047
1091.00,0.0047
1090.00,0.0046
1089.00,0.0046
1088.00,0.0046
1087.00,0.0046
1086.00,0.0047
1085.00,0.0047
1084.00,0.0047
1083.00,0.0048
1082.00,0.0049
1081.00,0.0050
1080.00,0.0051
1079.00,0.0051
1078.00,0.0051
1077.00,0.0051
1076.00,0.0050
1075.00,0.0050
1074.00,0.0050
1073.00,0.0050
1072.00,0.0050
1071.00,0.0050
1070.00,0.0051
1069.00,0.0052
1068.00,0.0053
1067.00,0.0055
1066.00,0.0057
1065.00,0.0060
1064.00,0.0064
1063.00,0.0070
1062.00,0.0078
1061.00,0.0091
1060.00,0.0109
1059.00,0.0132
1058.00,0.0154
1057.00,0.0168
1056.00,0.0170
1055.00,0.0161
1054.00,0.0146
1053.00,0.0132
1052.00,0.0121
1051.00,0.0113
1050.00,0.0107
1049.00,0.0101
1048.00,0.0094
1047.00,0.0089
1046.00,0.0083
1045.00,0.0079
1044.00,0.0074
1043.00,0.0071
1042.00,0.0068
1041.00,0.0067
1040.00,0.0066
1039.00,0.0066
1038.00,0.0066
1037.00,0.0068
1036.00,0.0071
1035.00,0.0075
1034.00,0.0082
1033.00,0.0094
1032.00,0.0114
1031.00,0.0141
1030.00,0.0169
1029.00,0.0186
1028.00,0.0184
1027.00,0.0166
1026.00,0.0141
1025.00,0.0119
1024.00,0.0103
1023.00,0.0094
1022.00,0.0088
1021.00,0.0084
1020.00,0.0081
1019.00,0.0079
1018.00,0.0078
1017.00,0.0078
1016.00,0.0079
1015.00,0.0082
1014.00,0.0086
1013.00,0.0092
1012.00,0.0096
1011.00,0.0097
1010.00,0.0093
1009.00,0.0087
1008.00,0.0081
1007.00,0.0078
1006.00,0.0076
1005.00,0.0076
1004.00,0.0077
1003.00,0.0077
1002.00,0.0078
1001.00,0.0079
1000.00,0.0080
999.00,0.0082
998.00,0.0084
997.00,0.0086
996.00,0.0088
995.00,0.0091
994.00,0.0093
993.00,0.0096
992.00,0.0101
991.00,0.0107
990.00,0.0115
989.00,0.0124
988.00,0.0131
987.00,0.0131
986.00,0.0126
985.00,0.0116
984.00,0.0106
983.00,0.0098
982.00,0.0094
981.00,0.0092
980.00,0.0094
979.00,0.0100
978.00,0.0112
977.00,0.0134
976.00,0.0177
975.00,0.0244
974.00,0.0325
973.00,0.0391
972.00,0.0408
971.00,0.0369
970.00,0.0296
969.00,0.0220
968.00,0.0161
967.00,0.0122
966.00,0.0097
965.00,0.0081
964.00,0.0072
963.00,0.0066
962.00,0.0061
961.00,0.0059
960.00,0.0057
959.00,0.0058
958.00,0.0061
957.00,0.0064
956.00,0.0066
955.00,0.0064
954.00,0.0059
953.00,0.0054
952.00,0.0049
951.00,0.0046
950.00,0.0045
949.00,0.0043
948.00,0.0042
947.00,0.0042
946.00,0.0042
945.00,0.0042
944.00,0.0043
943.00,0.0044
942.00,0.0045
941.00,0.0046
940.00,0.0047
939.00,0.0049
938.00,0.0052
937.00,0.0055
936.00,0.0058
935.00,0.0063
934.00,0.0069
933.00,0.0075
932.00,0.0083
931.00,0.0094
930.00,0.0112
929.00,0.0145
928.00,0.0202
927.00,0.0285
926.00,0.0382
925.00,0.0454
924.00,0.0468
923.00,0.0416
922.00,0.0327
921.00,0.0239
920.00,0.0174
919.00,0.0134
918.00,0.0111
917.00,0.0097
916.00,0.0088
915.00,0.0080
914.00,0.0074
913.00,0.0069
912.00,0.0065
911.00,0.0061
910.00,0.0058
909.00,0.0056
908.00,0.0054
907.00,0.0052
906.00,0.0051
905.00,0.0050
904.00,0.0050
903.00,0.0049
902.00,0.0048
901.00,0.0047
900.00,0.0047
899.00,0.0046
898.00,0.0044
897.00,0.0043
896.00,0.0043
895.00,0.0042
894.00,0.0041
893.00,0.0041
892.00,0.0040
891.00,0.0040
890.00,0.0040
889.00,0.0040
888.00,0.0040
887.00,0.0040
886.00,0.0040
885.00,0.0040
884.00,0.0040
883.00,0.0040
882.00,0.0040
881.00,0.0040
880.00,0.0040
879.00,0.0041
878.00,0.0041
877.00,0.0041
876.00,0.0042
875.00,0.0043
874.00,0.0044
873.00,0.0045
872.00,0.0045
871.00,0.0045
870.00,0.0045
869.00,0.0046
868.00,0.0047
867.00,0.0048
866.00,0.0048
865.00,0.0049
864.00,0.0050
863.00,0.0051
862.00,0.0052
861.00,0.0052
860.00,0.0052
859.00,0.0051
858.00,0.0051
857.00,0.0051
856.00,0.0052
855.00,0.0053
854.00,0.0055
853.00,0.0057
852.00,0.0059
851.00,0.0062
850.00,0.0067
849.00,0.0075
848.00,0.0085
847.00,0.0099
846.00,0.0119
845.00,0.0147
844.00,0.0190
843.00,0.0250
842.00,0.0324
841.00,0.0396
840.00,0.0442
839.00,0.0442
838.00,0.0399
837.00,0.0330
836.00,0.0260
835.00,0.0202
834.00,0.0160
833.00,0.0131
832.00,0.0114
831.00,0.0107
830.00,0.0109
829.00,0.0126
828.00,0.0165
827.00,0.0230
826.00,0.0305
825.00,0.0358
824.00,0.0360
823.00,0.0310
822.00,0.0236
821.00,0.0169
820.00,0.0122
819.00,0.0094
818.00,0.0077
817.00,0.0066
816.00,0.0059
815.00,0.0055
814.00,0.0052
813.00,0.0050
812.00,0.0049
811.00,0.0049
810.00,0.0048
809.00,0.0048
808.00,0.0049
807.00,0.0052
806.00,0.0057
805.00,0.0064
804.00,0.0070
803.00,0.0071
802.00,0.0066
801.00,0.0059
800.00,0.0053
799.00,0.0050
798.00,0.0048
797.00,0.0046
796.00,0.0047
795.00,0.0048
794.00,0.0048
793.00,0.0049
792.00,0.0052
791.00,0.0056
790.00,0.0060
789.00,0.0066
788.00,0.0077
787.00,0.0097
786.00,0.0135
785.00,0.0208
784.00,0.0329
783.00,0.0483
782.00,0.0616
781.00,0.0667
780.00,0.0614
779.00,0.0492
778.00,0.0359
777.00,0.0252
776.00,0.0180
775.00,0.0135
774.00,0.0106
773.00,0.0089
772.00,0.0078
771.00,0.0070
770.00,0.0064
769.00,0.0060
768.00,0.0057
767.00,0.0055
766.00,0.0052
765.00,0.0051
764.00,0.0050
763.00,0.0049
762.00,0.0048
761.00,0.0048
760.00,0.0048
759.00,0.0048
758.00,0.0048
757.00,0.0048
756.00,0.0048
755.00,0.0049
754.00,0.0049
753.00,0.0050
752.00,0.0051
751.00,0.0050
750.00,0.0050
749.00,0.0050
748.00,0.0050
747.00,0.0049
746.00,0.0049
745.00,0.0049
744.00,0.0049
743.00,0.0048
742.00,0.0048
741.00,0.0048
740.00,0.0047
739.00,0.0046
738.00,0.0045
737.00,0.0045
736.00,0.0045
735.00,0.0044
734.00,0.0044
733.00,0.0043
732.00,0.0043
731.00,0.0043
730.00,0.0043
729.00,0.0043
728.00,0.0043
727.00,0.0043
726.00,0.0043
725.00,0.0043
724.00,0.0043
723.00,0.0042
722.00,0.0041
721.00,0.0041
720.00,0.0041
719.00,0.0041
718.00,0.0042
717.00,0.0042
716.00,0.0043
715.00,0.0043
714.00,0.0043
713.00,0.0043
712.00,0.0043
711.00,0.0043
710.00,0.0042
709.00,0.0042
708.00,0.0042
707.00,0.0041
706.00,0.0041
705.00,0.0041
704.00,0.0041
703.00,0.0041
702.00,0.0041
701.00,0.0041
700.00,0.0041
699.00,0.0040
698.00,0.0040
697.00,0.0040
696.00,0.0040
695.00,0.0040
694.00,0.0039
693.00,0.0040
692.00,0.0040
691.00,0.0040
690.00,0.0040
689.00,0.0039
688.00,0.0039
687.00,0.0039
686.00,0.0039
685.00,0.0040
684.00,0.0040
683.00,0.0041
682.00,0.0041
681.00,0.0041
680.00,0.0041
679.00,0.0041
678.00,0.0040
677.00,0.0040
676.00,0.0040
675.00,0.0041
674.00,0.0041
673.00,0.0041
672.00,0.0041
671.00,0.0041
670.00,0.0043
669.00,0.0045
668.00,0.0046
667.00,0.0045
666.00,0.0043
665.00,0.0041
664.00,0.0042
663.00,0.0042
662.00,0.0043
661.00,0.0044
660.00,0.0045
659.00,0.0046
658.00,0.0047
657.00,0.0049
656.00,0.0051
655.00,0.0052
654.00,0.0053
653.00,0.0054
652.00,0.0054
651.00,0.0055
650.00,0.0056
649.00,0.0058
648.00,0.0059
647.00,0.0060
646.00,0.0060
645.00,0.0060
644.00,0.0060
643.00,0.0060
642.00,0.0059
641.00,0.0059
640.00,0.0058
639.00,0.0057
638.00,0.0057
637.00,0.0056
636.00,0.0057
635.00,0.0057
634.00,0.0058
633.00,0.0060
632.00,0.0061
631.00,0.0061
630.00,0.0061
629.00,0.0061
628.00,0.0062
627.00,0.0062
626.00,0.0063
625.00,0.0063
624.00,0.0064
623.00,0.0066
622.00,0.0071
621.00,0.0080
620.00,0.0088
619.00,0.0091
618.00,0.0088
617.00,0.0080
616.00,0.0073
615.00,0.0069
614.00,0.0068
613.00,0.0067
612.00,0.0066
611.00,0.0065
610.00,0.0065
609.00,0.0064
608.00,0.0064
607.00,0.0063
606.00,0.0063
605.00,0.0063
604.00,0.0063
603.00,0.0063
602.00,0.0064
601.00,0.0064
600.00,0.0065
599.00,0.0065
598.00,0.0064
597.00,0.0063
596.00,0.0063
595.00,0.0062
594.00,0.0061
593.00,0.0060
592.00,0.0059
591.00,0.0058
590.00,0.0057
589.00,0.0057
588.00,0.0058
587.00,0.0059
586.00,0.0059
585.00,0.0059
584.00,0.0058
583.00,0.0058
582.00,0.0058
581.00,0.0058
580.00,0.0059
579.00,0.0060
578.00,0.0060
577.00,0.0060
576.00,0.0060
575.00,0.0059
574.00,0.0059
573.00,0.0059
572.00,0.0060
571.00,0.0061
570.00,0.0061
569.00,0.0061
568.00,0.0061
567.00,0.0062
566.00,0.0063
565.00,0.0065
564.00,0.0066
563.00,0.0067
562.00,0.0067
561.00,0.0067
560.00,0.0066
559.00,0.0065
558.00,0.0065
557.00,0.0064
556.00,0.0064
555.00,0.0065
554.00,0.0065
553.00,0.0065
552.00,0.0064
551.00,0.0064
550.00,0.0063
549.00,0.0064
548.00,0.0065
547.00,0.0065
546.00,0.0065
545.00,0.0064
544.00,0.0064
543.00,0.0064
542.00,0.0063
541.00,0.0062
540.00,0.0062
539.00,0.0062
538.00,0.0063
537.00,0.0066
536.00,0.0069
535.00,0.0072
534.00,0.0075
533.00,0.0079
532.00,0.0088
531.00,0.0101
530.00,0.0123
529.00,0.0152
528.00,0.0184
527.00,0.0207
526.00,0.0210
525.00,0.0192
524.00,0.0160
523.00,0.0128
522.00,0.0104
521.00,0.0088
520.00,0.0080
519.00,0.0074
518.00,0.0069
517.00,0.0065
516.00,0.0062
515.00,0.0060
514.00,0.0059
513.00,0.0058
512.00,0.0058
511.00,0.0058
510.00,0.0058
509.00,0.0058
508.00,0.0057
507.00,0.0056
506.00,0.0055
505.00,0.0055
504.00,0.0055
503.00,0.0056
502.00,0.0057
501.00,0.0056
500.00,0.0055
499.00,0.0054
498.00,0.0054
497.00,0.0055
496.00,0.0056
495.00,0.0057
494.00,0.0057
493.00,0.0057
492.00,0.0056
491.00,0.0057
490.00,0.0058
489.00,0.0060
488.00,0.0062
487.00,0.0061
486.00,0.0059
485.00,0.0059
484.00,0.0060
483.00,0.0064
482.00,0.0069
481.00,0.0077
480.00,0.0090
479.00,0.0113
478.00,0.0153
477.00,0.0206
476.00,0.0253
475.00,0.0273
474.00,0.0254
473.00,0.0206
472.00,0.0154
471.00,0.0115
470.00,0.0091
469.00,0.0078
468.00,0.0070
467.00,0.0065
466.00,0.0061
465.00,0.0059
464.00,0.0059
463.00,0.0059
462.00,0.0059
461.00,0.0057
460.00,0.0056
459.00,0.0055
458.00,0.0054
457.00,0.0056
456.00,0.0059
455.00,0.0063
454.00,0.0063
453.00,0.0061
452.00,0.0055
451.00,0.0050
450.00,0.0047
449.00,0.0044
448.00,0.0043
447.00,0.0041
446.00,0.0040
445.00,0.0039
444.00,0.0038
443.00,0.0038
442.00,0.0039
441.00,0.0041
440.00,0.0044
439.00,0.0046
438.00,0.0048
437.00,0.0050
436.00,0.0051
435.00,0.0052
434.00,0.0051
433.00,0.0049
432.00,0.0045
431.00,0.0041
430.00,0.0038
429.00,0.0035
428.00,0.0033
427.00,0.0034
426.00,0.0040
425.00,0.0048
424.00,0.0055
423.00,0.0055
422.00,0.0052
421.00,0.0046
420.00,0.0039
419.00,0.0034
418.00,0.0034
417.00,0.0040
416.00,0.0047
415.00,0.0050
414.00,0.0048
413.00,0.0045
412.00,0.0047
411.00,0.0052
410.00,0.0058
409.00,0.0061
408.00,0.0062
407.00,0.0065
406.00,0.0069
405.00,0.0073
404.00,0.0074
403.00,0.0072
402.00,0.0069
401.00,0.0067
400.00,0.0068
