Created as New Dataset,Sample 858 By YargerLab Date Saturday, April 18 2026
cm-1,A
4000.00,0.0051
3999.00,0.0051
3998.00,0.0051
3997.00,0.0051
3996.00,0.0051
3995.00,0.0050
3994.00,0.0050
3993.00,0.0050
3992.00,0.0050
3991.00,0.0050
3990.00,0.0051
3989.00,0.0051
3988.00,0.0050
3987.00,0.0050
3986.00,0.0050
3985.00,0.0050
3984.00,0.0050
3983.00,0.0050
3982.00,0.0050
3981.00,0.0050
3980.00,0.0050
3979.00,0.0050
3978.00,0.0050
3977.00,0.0050
3976.00,0.0050
3975.00,0.0050
3974.00,0.0050
3973.00,0.0050
3972.00,0.0050
3971.00,0.0050
3970.00,0.0050
3969.00,0.0049
3968.00,0.0049
3967.00,0.0049
3966.00,0.0049
3965.00,0.0049
3964.00,0.0049
3963.00,0.0049
3962.00,0.0049
3961.00,0.0049
3960.00,0.0049
3959.00,0.0048
3958.00,0.0048
3957.00,0.0048
3956.00,0.0048
3955.00,0.0049
3954.00,0.0049
3953.00,0.0049
3952.00,0.0049
3951.00,0.0049
3950.00,0.0049
3949.00,0.0049
3948.00,0.0049
3947.00,0.0049
3946.00,0.0049
3945.00,0.0049
3944.00,0.0049
3943.00,0.0049
3942.00,0.0049
3941.00,0.0049
3940.00,0.0049
3939.00,0.0049
3938.00,0.0049
3937.00,0.0049
3936.00,0.0049
3935.00,0.0049
3934.00,0.0049
3933.00,0.0049
3932.00,0.0048
3931.00,0.0048
3930.00,0.0048
3929.00,0.0048
3928.00,0.0048
3927.00,0.0048
3926.00,0.0048
3925.00,0.0048
3924.00,0.0048
3923.00,0.0048
3922.00,0.0048
3921.00,0.0048
3920.00,0.0048
3919.00,0.0048
3918.00,0.0047
3917.00,0.0047
3916.00,0.0047
3915.00,0.0047
3914.00,0.0047
3913.00,0.0047
3912.00,0.0047
3911.00,0.0047
3910.00,0.0047
3909.00,0.0047
3908.00,0.0047
3907.00,0.0047
3906.00,0.0047
3905.00,0.0048
3904.00,0.0048
3903.00,0.0048
3902.00,0.0048
3901.00,0.0048
3900.00,0.0048
3899.00,0.0048
3898.00,0.0048
3897.00,0.0047
3896.00,0.0047
3895.00,0.0047
3894.00,0.0047
3893.00,0.0047
3892.00,0.0047
3891.00,0.0047
3890.00,0.0047
3889.00,0.0047
3888.00,0.0046
3887.00,0.0047
3886.00,0.0047
3885.00,0.0046
3884.00,0.0046
3883.00,0.0046
3882.00,0.0046
3881.00,0.0046
3880.00,0.0046
3879.00,0.0046
3878.00,0.0046
3877.00,0.0046
3876.00,0.0046
3875.00,0.0046
3874.00,0.0046
3873.00,0.0046
3872.00,0.0046
3871.00,0.0046
3870.00,0.0046
3869.00,0.0046
3868.00,0.0046
3867.00,0.0045
3866.00,0.0045
3865.00,0.0045
3864.00,0.0045
3863.00,0.0045
3862.00,0.0046
3861.00,0.0045
3860.00,0.0045
3859.00,0.0045
3858.00,0.0045
3857.00,0.0045
3856.00,0.0045
3855.00,0.0045
3854.00,0.0045
3853.00,0.0045
3852.00,0.0045
3851.00,0.0045
3850.00,0.0045
3849.00,0.0046
3848.00,0.0045
3847.00,0.0045
3846.00,0.0045
3845.00,0.0045
3844.00,0.0045
3843.00,0.0045
3842.00,0.0045
3841.00,0.0045
3840.00,0.0044
3839.00,0.0044
3838.00,0.0044
3837.00,0.0044
3836.00,0.0044
3835.00,0.0044
3834.00,0.0044
3833.00,0.0044
3832.00,0.0044
3831.00,0.0044
3830.00,0.0045
3829.00,0.0045
3828.00,0.0044
3827.00,0.0044
3826.00,0.0044
3825.00,0.0044
3824.00,0.0044
3823.00,0.0044
3822.00,0.0043
3821.00,0.0043
3820.00,0.0043
3819.00,0.0043
3818.00,0.0043
3817.00,0.0043
3816.00,0.0044
3815.00,0.0044
3814.00,0.0044
3813.00,0.0044
3812.00,0.0044
3811.00,0.0043
3810.00,0.0043
3809.00,0.0043
3808.00,0.0043
3807.00,0.0043
3806.00,0.0043
3805.00,0.0043
3804.00,0.0043
3803.00,0.0043
3802.00,0.0043
3801.00,0.0043
3800.00,0.0043
3799.00,0.0043
3798.00,0.0043
3797.00,0.0043
3796.00,0.0043
3795.00,0.0043
3794.00,0.0044
3793.00,0.0044
3792.00,0.0044
3791.00,0.0044
3790.00,0.0044
3789.00,0.0044
3788.00,0.0043
3787.00,0.0043
3786.00,0.0043
3785.00,0.0043
3784.00,0.0043
3783.00,0.0043
3782.00,0.0042
3781.00,0.0042
3780.00,0.0043
3779.00,0.0043
3778.00,0.0043
3777.00,0.0043
3776.00,0.0043
3775.00,0.0043
3774.00,0.0043
3773.00,0.0043
3772.00,0.0043
3771.00,0.0043
3770.00,0.0043
3769.00,0.0043
3768.00,0.0043
3767.00,0.0043
3766.00,0.0043
3765.00,0.0042
3764.00,0.0042
3763.00,0.0042
3762.00,0.0043
3761.00,0.0043
3760.00,0.0043
3759.00,0.0042
3758.00,0.0042
3757.00,0.0042
3756.00,0.0042
3755.00,0.0042
3754.00,0.0042
3753.00,0.0042
3752.00,0.0042
3751.00,0.0042
3750.00,0.0042
3749.00,0.0042
3748.00,0.0041
3747.00,0.0041
3746.00,0.0041
3745.00,0.0041
3744.00,0.0041
3743.00,0.0041
3742.00,0.0041
3741.00,0.0041
3740.00,0.0041
3739.00,0.0041
3738.00,0.0041
3737.00,0.0041
3736.00,0.0041
3735.00,0.0041
3734.00,0.0040
3733.00,0.0040
3732.00,0.0040
3731.00,0.0040
3730.00,0.0039
3729.00,0.0039
3728.00,0.0039
3727.00,0.0039
3726.00,0.0039
3725.00,0.0039
3724.00,0.0039
3723.00,0.0039
3722.00,0.0039
3721.00,0.0039
3720.00,0.0040
3719.00,0.0040
3718.00,0.0040
3717.00,0.0040
3716.00,0.0040
3715.00,0.0040
3714.00,0.0040
3713.00,0.0040
3712.00,0.0039
3711.00,0.0039
3710.00,0.0039
3709.00,0.0039
3708.00,0.0039
3707.00,0.0039
3706.00,0.0039
3705.00,0.0038
3704.00,0.0038
3703.00,0.0038
3702.00,0.0038
3701.00,0.0038
3700.00,0.0038
3699.00,0.0038
3698.00,0.0038
3697.00,0.0038
3696.00,0.0038
3695.00,0.0038
3694.00,0.0038
3693.00,0.0037
3692.00,0.0037
3691.00,0.0037
3690.00,0.0037
3689.00,0.0036
3688.00,0.0036
3687.00,0.0037
3686.00,0.0037
3685.00,0.0037
3684.00,0.0037
3683.00,0.0037
3682.00,0.0037
3681.00,0.0037
3680.00,0.0037
3679.00,0.0036
3678.00,0.0036
3677.00,0.0036
3676.00,0.0036
3675.00,0.0036
3674.00,0.0036
3673.00,0.0036
3672.00,0.0036
3671.00,0.0036
3670.00,0.0036
3669.00,0.0036
3668.00,0.0036
3667.00,0.0036
3666.00,0.0036
3665.00,0.0036
3664.00,0.0036
3663.00,0.0036
3662.00,0.0036
3661.00,0.0036
3660.00,0.0036
3659.00,0.0036
3658.00,0.0036
3657.00,0.0036
3656.00,0.0036
3655.00,0.0035
3654.00,0.0035
3653.00,0.0035
3652.00,0.0035
3651.00,0.0035
3650.00,0.0035
3649.00,0.0035
3648.00,0.0036
3647.00,0.0036
3646.00,0.0036
3645.00,0.0035
3644.00,0.0035
3643.00,0.0035
3642.00,0.0035
3641.00,0.0035
3640.00,0.0035
3639.00,0.0035
3638.00,0.0035
3637.00,0.0035
3636.00,0.0035
3635.00,0.0035
3634.00,0.0035
3633.00,0.0035
3632.00,0.0035
3631.00,0.0035
3630.00,0.0035
3629.00,0.0035
3628.00,0.0035
3627.00,0.0035
3626.00,0.0035
3625.00,0.0035
3624.00,0.0035
3623.00,0.0035
3622.00,0.0035
3621.00,0.0035
3620.00,0.0035
3619.00,0.0035
3618.00,0.0035
3617.00,0.0035
3616.00,0.0035
3615.00,0.0036
3614.00,0.0036
3613.00,0.0036
3612.00,0.0035
3611.00,0.0036
3610.00,0.0036
3609.00,0.0036
3608.00,0.0036
3607.00,0.0036
3606.00,0.0036
3605.00,0.0036
3604.00,0.0036
3603.00,0.0036
3602.00,0.0036
3601.00,0.0036
3600.00,0.0036
3599.00,0.0035
3598.00,0.0035
3597.00,0.0035
3596.00,0.0035
3595.00,0.0035
3594.00,0.0036
3593.00,0.0036
3592.00,0.0036
3591.00,0.0036
3590.00,0.0036
3589.00,0.0037
3588.00,0.0037
3587.00,0.0037
3586.00,0.0037
3585.00,0.0037
3584.00,0.0037
3583.00,0.0038
3582.00,0.0038
3581.00,0.0038
3580.00,0.0038
3579.00,0.0038
3578.00,0.0039
3577.00,0.0039
3576.00,0.0039
3575.00,0.0040
3574.00,0.0040
3573.00,0.0040
3572.00,0.0040
3571.00,0.0040
3570.00,0.0040
3569.00,0.0041
3568.00,0.0041
3567.00,0.0041
3566.00,0.0042
3565.00,0.0042
3564.00,0.0042
3563.00,0.0042
3562.00,0.0043
3561.00,0.0043
3560.00,0.0044
3559.00,0.0044
3558.00,0.0044
3557.00,0.0044
3556.00,0.0045
3555.00,0.0045
3554.00,0.0045
3553.00,0.0046
3552.00,0.0046
3551.00,0.0047
3550.00,0.0047
3549.00,0.0048
3548.00,0.0048
3547.00,0.0049
3546.00,0.0049
3545.00,0.0050
3544.00,0.0050
3543.00,0.0051
3542.00,0.0051
3541.00,0.0052
3540.00,0.0052
3539.00,0.0053
3538.00,0.0053
3537.00,0.0054
3536.00,0.0055
3535.00,0.0055
3534.00,0.0056
3533.00,0.0056
3532.00,0.0057
3531.00,0.0057
3530.00,0.0058
3529.00,0.0059
3528.00,0.0060
3527.00,0.0061
3526.00,0.0062
3525.00,0.0063
3524.00,0.0063
3523.00,0.0064
3522.00,0.0064
3521.00,0.0065
3520.00,0.0066
3519.00,0.0067
3518.00,0.0067
3517.00,0.0068
3516.00,0.0069
3515.00,0.0069
3514.00,0.0070
3513.00,0.0071
3512.00,0.0071
3511.00,0.0072
3510.00,0.0073
3509.00,0.0073
3508.00,0.0074
3507.00,0.0075
3506.00,0.0076
3505.00,0.0076
3504.00,0.0077
3503.00,0.0078
3502.00,0.0079
3501.00,0.0079
3500.00,0.0080
3499.00,0.0081
3498.00,0.0081
3497.00,0.0082
3496.00,0.0083
3495.00,0.0084
3494.00,0.0085
3493.00,0.0086
3492.00,0.0087
3491.00,0.0088
3490.00,0.0090
3489.00,0.0091
3488.00,0.0092
3487.00,0.0093
3486.00,0.0094
3485.00,0.0096
3484.00,0.0097
3483.00,0.0098
3482.00,0.0100
3481.00,0.0101
3480.00,0.0103
3479.00,0.0104
3478.00,0.0106
3477.00,0.0107
3476.00,0.0109
3475.00,0.0111
3474.00,0.0112
3473.00,0.0114
3472.00,0.0116
3471.00,0.0118
3470.00,0.0120
3469.00,0.0122
3468.00,0.0124
3467.00,0.0126
3466.00,0.0129
3465.00,0.0131
3464.00,0.0133
3463.00,0.0135
3462.00,0.0138
3461.00,0.0140
3460.00,0.0143
3459.00,0.0145
3458.00,0.0147
3457.00,0.0150
3456.00,0.0153
3455.00,0.0155
3454.00,0.0158
3453.00,0.0161
3452.00,0.0164
3451.00,0.0167
3450.00,0.0170
3449.00,0.0172
3448.00,0.0175
3447.00,0.0178
3446.00,0.0181
3445.00,0.0183
3444.00,0.0186
3443.00,0.0189
3442.00,0.0191
3441.00,0.0194
3440.00,0.0197
3439.00,0.0200
3438.00,0.0203
3437.00,0.0206
3436.00,0.0209
3435.00,0.0212
3434.00,0.0215
3433.00,0.0219
3432.00,0.0222
3431.00,0.0226
3430.00,0.0230
3429.00,0.0235
3428.00,0.0240
3427.00,0.0245
3426.00,0.0251
3425.00,0.0258
3424.00,0.0266
3423.00,0.0274
3422.00,0.0284
3421.00,0.0295
3420.00,0.0306
3419.00,0.0319
3418.00,0.0333
3417.00,0.0347
3416.00,0.0362
3415.00,0.0378
3414.00,0.0393
3413.00,0.0408
3412.00,0.0422
3411.00,0.0434
3410.00,0.0445
3409.00,0.0454
3408.00,0.0460
3407.00,0.0465
3406.00,0.0468
3405.00,0.0469
3404.00,0.0470
3403.00,0.0471
3402.00,0.0471
3401.00,0.0471
3400.00,0.0471
3399.00,0.0471
3398.00,0.0472
3397.00,0.0472
3396.00,0.0473
3395.00,0.0474
3394.00,0.0474
3393.00,0.0474
3392.00,0.0474
3391.00,0.0472
3390.00,0.0470
3389.00,0.0467
3388.00,0.0463
3387.00,0.0459
3386.00,0.0455
3385.00,0.0452
3384.00,0.0448
3383.00,0.0445
3382.00,0.0442
3381.00,0.0440
3380.00,0.0438
3379.00,0.0436
3378.00,0.0435
3377.00,0.0434
3376.00,0.0434
3375.00,0.0434
3374.00,0.0435
3373.00,0.0437
3372.00,0.0439
3371.00,0.0441
3370.00,0.0443
3369.00,0.0446
3368.00,0.0449
3367.00,0.0452
3366.00,0.0455
3365.00,0.0459
3364.00,0.0463
3363.00,0.0467
3362.00,0.0471
3361.00,0.0475
3360.00,0.0480
3359.00,0.0484
3358.00,0.0488
3357.00,0.0492
3356.00,0.0496
3355.00,0.0499
3354.00,0.0503
3353.00,0.0506
3352.00,0.0509
3351.00,0.0512
3350.00,0.0514
3349.00,0.0516
3348.00,0.0518
3347.00,0.0520
3346.00,0.0522
3345.00,0.0524
3344.00,0.0526
3343.00,0.0528
3342.00,0.0529
3341.00,0.0531
3340.00,0.0534
3339.00,0.0536
3338.00,0.0539
3337.00,0.0541
3336.00,0.0544
3335.00,0.0547
3334.00,0.0551
3333.00,0.0554
3332.00,0.0558
3331.00,0.0562
3330.00,0.0567
3329.00,0.0571
3328.00,0.0576
3327.00,0.0581
3326.00,0.0587
3325.00,0.0592
3324.00,0.0597
3323.00,0.0602
3322.00,0.0607
3321.00,0.0612
3320.00,0.0618
3319.00,0.0623
3318.00,0.0629
3317.00,0.0634
3316.00,0.0638
3315.00,0.0643
3314.00,0.0647
3313.00,0.0652
3312.00,0.0656
3311.00,0.0660
3310.00,0.0664
3309.00,0.0667
3308.00,0.0670
3307.00,0.0672
3306.00,0.0674
3305.00,0.0675
3304.00,0.0676
3303.00,0.0677
3302.00,0.0678
3301.00,0.0678
3300.00,0.0678
3299.00,0.0678
3298.00,0.0678
3297.00,0.0678
3296.00,0.0678
3295.00,0.0678
3294.00,0.0678
3293.00,0.0678
3292.00,0.0678
3291.00,0.0677
3290.00,0.0677
3289.00,0.0676
3288.00,0.0676
3287.00,0.0676
3286.00,0.0677
3285.00,0.0677
3284.00,0.0678
3283.00,0.0679
3282.00,0.0680
3281.00,0.0680
3280.00,0.0681
3279.00,0.0683
3278.00,0.0684
3277.00,0.0686
3276.00,0.0687
3275.00,0.0689
3274.00,0.0691
3273.00,0.0692
3272.00,0.0694
3271.00,0.0695
3270.00,0.0696
3269.00,0.0697
3268.00,0.0697
3267.00,0.0698
3266.00,0.0699
3265.00,0.0700
3264.00,0.0701
3263.00,0.0702
3262.00,0.0703
3261.00,0.0704
3260.00,0.0705
3259.00,0.0706
3258.00,0.0707
3257.00,0.0708
3256.00,0.0708
3255.00,0.0708
3254.00,0.0709
3253.00,0.0709
3252.00,0.0709
3251.00,0.0710
3250.00,0.0710
3249.00,0.0710
3248.00,0.0710
3247.00,0.0710
3246.00,0.0710
3245.00,0.0710
3244.00,0.0710
3243.00,0.0709
3242.00,0.0709
3241.00,0.0708
3240.00,0.0708
3239.00,0.0707
3238.00,0.0706
3237.00,0.0706
3236.00,0.0705
3235.00,0.0705
3234.00,0.0704
3233.00,0.0703
3232.00,0.0702
3231.00,0.0701
3230.00,0.0700
3229.00,0.0699
3228.00,0.0698
3227.00,0.0697
3226.00,0.0697
3225.00,0.0696
3224.00,0.0695
3223.00,0.0695
3222.00,0.0694
3221.00,0.0694
3220.00,0.0693
3219.00,0.0693
3218.00,0.0692
3217.00,0.0691
3216.00,0.0690
3215.00,0.0690
3214.00,0.0689
3213.00,0.0689
3212.00,0.0688
3211.00,0.0688
3210.00,0.0687
3209.00,0.0687
3208.00,0.0686
3207.00,0.0686
3206.00,0.0685
3205.00,0.0685
3204.00,0.0684
3203.00,0.0683
3202.00,0.0682
3201.00,0.0680
3200.00,0.0679
3199.00,0.0678
3198.00,0.0677
3197.00,0.0676
3196.00,0.0674
3195.00,0.0673
3194.00,0.0671
3193.00,0.0670
3192.00,0.0668
3191.00,0.0666
3190.00,0.0664
3189.00,0.0662
3188.00,0.0659
3187.00,0.0657
3186.00,0.0654
3185.00,0.0652
3184.00,0.0649
3183.00,0.0647
3182.00,0.0644
3181.00,0.0641
3180.00,0.0638
3179.00,0.0635
3178.00,0.0632
3177.00,0.0629
3176.00,0.0626
3175.00,0.0622
3174.00,0.0619
3173.00,0.0616
3172.00,0.0612
3171.00,0.0609
3170.00,0.0606
3169.00,0.0603
3168.00,0.0599
3167.00,0.0595
3166.00,0.0592
3165.00,0.0588
3164.00,0.0585
3163.00,0.0582
3162.00,0.0578
3161.00,0.0575
3160.00,0.0571
3159.00,0.0568
3158.00,0.0564
3157.00,0.0561
3156.00,0.0557
3155.00,0.0554
3154.00,0.0551
3153.00,0.0548
3152.00,0.0544
3151.00,0.0541
3150.00,0.0537
3149.00,0.0533
3148.00,0.0530
3147.00,0.0526
3146.00,0.0523
3145.00,0.0520
3144.00,0.0516
3143.00,0.0513
3142.00,0.0510
3141.00,0.0507
3140.00,0.0504
3139.00,0.0500
3138.00,0.0497
3137.00,0.0493
3136.00,0.0490
3135.00,0.0487
3134.00,0.0484
3133.00,0.0481
3132.00,0.0478
3131.00,0.0475
3130.00,0.0472
3129.00,0.0469
3128.00,0.0465
3127.00,0.0462
3126.00,0.0459
3125.00,0.0455
3124.00,0.0452
3123.00,0.0449
3122.00,0.0446
3121.00,0.0443
3120.00,0.0440
3119.00,0.0437
3118.00,0.0434
3117.00,0.0431
3116.00,0.0428
3115.00,0.0425
3114.00,0.0421
3113.00,0.0418
3112.00,0.0415
3111.00,0.0412
3110.00,0.0409
3109.00,0.0406
3108.00,0.0403
3107.00,0.0400
3106.00,0.0397
3105.00,0.0394
3104.00,0.0391
3103.00,0.0388
3102.00,0.0385
3101.00,0.0382
3100.00,0.0379
3099.00,0.0376
3098.00,0.0373
3097.00,0.0370
3096.00,0.0368
3095.00,0.0365
3094.00,0.0362
3093.00,0.0360
3092.00,0.0357
3091.00,0.0354
3090.00,0.0352
3089.00,0.0349
3088.00,0.0347
3087.00,0.0344
3086.00,0.0341
3085.00,0.0339
3084.00,0.0336
3083.00,0.0334
3082.00,0.0331
3081.00,0.0329
3080.00,0.0327
3079.00,0.0324
3078.00,0.0321
3077.00,0.0319
3076.00,0.0316
3075.00,0.0313
3074.00,0.0311
3073.00,0.0308
3072.00,0.0306
3071.00,0.0304
3070.00,0.0302
3069.00,0.0299
3068.00,0.0297
3067.00,0.0295
3066.00,0.0292
3065.00,0.0290
3064.00,0.0288
3063.00,0.0286
3062.00,0.0284
3061.00,0.0281
3060.00,0.0279
3059.00,0.0277
3058.00,0.0275
3057.00,0.0273
3056.00,0.0271
3055.00,0.0269
3054.00,0.0267
3053.00,0.0265
3052.00,0.0263
3051.00,0.0261
3050.00,0.0259
3049.00,0.0258
3048.00,0.0256
3047.00,0.0254
3046.00,0.0252
3045.00,0.0250
3044.00,0.0248
3043.00,0.0246
3042.00,0.0245
3041.00,0.0243
3040.00,0.0241
3039.00,0.0239
3038.00,0.0238
3037.00,0.0236
3036.00,0.0234
3035.00,0.0232
3034.00,0.0231
3033.00,0.0229
3032.00,0.0227
3031.00,0.0226
3030.00,0.0224
3029.00,0.0223
3028.00,0.0222
3027.00,0.0220
3026.00,0.0219
3025.00,0.0217
3024.00,0.0216
3023.00,0.0215
3022.00,0.0213
3021.00,0.0212
3020.00,0.0210
3019.00,0.0209
3018.00,0.0207
3017.00,0.0206
3016.00,0.0205
3015.00,0.0203
3014.00,0.0202
3013.00,0.0200
3012.00,0.0199
3011.00,0.0197
3010.00,0.0196
3009.00,0.0195
3008.00,0.0193
3007.00,0.0192
3006.00,0.0190
3005.00,0.0189
3004.00,0.0187
3003.00,0.0186
3002.00,0.0185
3001.00,0.0183
3000.00,0.0182
2999.00,0.0181
2998.00,0.0179
2997.00,0.0178
2996.00,0.0176
2995.00,0.0175
2994.00,0.0173
2993.00,0.0172
2992.00,0.0171
2991.00,0.0170
2990.00,0.0169
2989.00,0.0168
2988.00,0.0167
2987.00,0.0166
2986.00,0.0164
2985.00,0.0163
2984.00,0.0161
2983.00,0.0159
2982.00,0.0157
2981.00,0.0156
2980.00,0.0155
2979.00,0.0155
2978.00,0.0155
2977.00,0.0156
2976.00,0.0157
2975.00,0.0158
2974.00,0.0159
2973.00,0.0159
2972.00,0.0158
2971.00,0.0156
2970.00,0.0155
2969.00,0.0154
2968.00,0.0153
2967.00,0.0153
2966.00,0.0153
2965.00,0.0153
2964.00,0.0154
2963.00,0.0155
2962.00,0.0155
2961.00,0.0156
2960.00,0.0157
2959.00,0.0158
2958.00,0.0160
2957.00,0.0164
2956.00,0.0169
2955.00,0.0175
2954.00,0.0184
2953.00,0.0196
2952.00,0.0211
2951.00,0.0230
2950.00,0.0252
2949.00,0.0277
2948.00,0.0302
2947.00,0.0327
2946.00,0.0347
2945.00,0.0360
2944.00,0.0364
2943.00,0.0360
2942.00,0.0348
2941.00,0.0331
2940.00,0.0313
2939.00,0.0294
2938.00,0.0277
2937.00,0.0261
2936.00,0.0247
2935.00,0.0234
2934.00,0.0222
2933.00,0.0212
2932.00,0.0203
2931.00,0.0196
2930.00,0.0190
2929.00,0.0186
2928.00,0.0183
2927.00,0.0181
2926.00,0.0180
2925.00,0.0180
2924.00,0.0182
2923.00,0.0185
2922.00,0.0190
2921.00,0.0198
2920.00,0.0208
2919.00,0.0221
2918.00,0.0238
2917.00,0.0256
2916.00,0.0274
2915.00,0.0289
2914.00,0.0299
2913.00,0.0300
2912.00,0.0295
2911.00,0.0284
2910.00,0.0271
2909.00,0.0258
2908.00,0.0247
2907.00,0.0238
2906.00,0.0232
2905.00,0.0228
2904.00,0.0225
2903.00,0.0223
2902.00,0.0221
2901.00,0.0221
2900.00,0.0222
2899.00,0.0224
2898.00,0.0229
2897.00,0.0236
2896.00,0.0246
2895.00,0.0257
2894.00,0.0269
2893.00,0.0279
2892.00,0.0285
2891.00,0.0286
2890.00,0.0283
2889.00,0.0276
2888.00,0.0268
2887.00,0.0260
2886.00,0.0254
2885.00,0.0250
2884.00,0.0248
2883.00,0.0247
2882.00,0.0248
2881.00,0.0250
2880.00,0.0251
2879.00,0.0253
2878.00,0.0253
2877.00,0.0253
2876.00,0.0251
2875.00,0.0249
2874.00,0.0247
2873.00,0.0244
2872.00,0.0240
2871.00,0.0237
2870.00,0.0234
2869.00,0.0231
2868.00,0.0229
2867.00,0.0226
2866.00,0.0224
2865.00,0.0222
2864.00,0.0220
2863.00,0.0218
2862.00,0.0216
2861.00,0.0214
2860.00,0.0213
2859.00,0.0212
2858.00,0.0211
2857.00,0.0210
2856.00,0.0210
2855.00,0.0209
2854.00,0.0209
2853.00,0.0209
2852.00,0.0210
2851.00,0.0211
2850.00,0.0211
2849.00,0.0212
2848.00,0.0213
2847.00,0.0214
2846.00,0.0214
2845.00,0.0214
2844.00,0.0214
2843.00,0.0214
2842.00,0.0213
2841.00,0.0213
2840.00,0.0211
2839.00,0.0210
2838.00,0.0209
2837.00,0.0208
2836.00,0.0207
2835.00,0.0205
2834.00,0.0204
2833.00,0.0202
2832.00,0.0201
2831.00,0.0200
2830.00,0.0198
2829.00,0.0197
2828.00,0.0196
2827.00,0.0195
2826.00,0.0194
2825.00,0.0193
2824.00,0.0192
2823.00,0.0191
2822.00,0.0190
2821.00,0.0189
2820.00,0.0188
2819.00,0.0188
2818.00,0.0187
2817.00,0.0187
2816.00,0.0187
2815.00,0.0187
2814.00,0.0187
2813.00,0.0187
2812.00,0.0186
2811.00,0.0187
2810.00,0.0187
2809.00,0.0187
2808.00,0.0187
2807.00,0.0188
2806.00,0.0188
2805.00,0.0188
2804.00,0.0188
2803.00,0.0189
2802.00,0.0189
2801.00,0.0189
2800.00,0.0189
2799.00,0.0189
2798.00,0.0189
2797.00,0.0190
2796.00,0.0190
2795.00,0.0190
2794.00,0.0190
2793.00,0.0190
2792.00,0.0189
2791.00,0.0189
2790.00,0.0188
2789.00,0.0188
2788.00,0.0187
2787.00,0.0187
2786.00,0.0187
2785.00,0.0186
2784.00,0.0186
2783.00,0.0186
2782.00,0.0185
2781.00,0.0184
2780.00,0.0184
2779.00,0.0183
2778.00,0.0182
2777.00,0.0182
2776.00,0.0181
2775.00,0.0181
2774.00,0.0180
2773.00,0.0180
2772.00,0.0179
2771.00,0.0179
2770.00,0.0178
2769.00,0.0178
2768.00,0.0177
2767.00,0.0177
2766.00,0.0176
2765.00,0.0176
2764.00,0.0175
2763.00,0.0175
2762.00,0.0174
2761.00,0.0173
2760.00,0.0173
2759.00,0.0172
2758.00,0.0172
2757.00,0.0171
2756.00,0.0170
2755.00,0.0169
2754.00,0.0168
2753.00,0.0167
2752.00,0.0167
2751.00,0.0166
2750.00,0.0165
2749.00,0.0164
2748.00,0.0163
2747.00,0.0163
2746.00,0.0162
2745.00,0.0161
2744.00,0.0161
2743.00,0.0160
2742.00,0.0160
2741.00,0.0159
2740.00,0.0159
2739.00,0.0158
2738.00,0.0158
2737.00,0.0157
2736.00,0.0157
2735.00,0.0157
2734.00,0.0157
2733.00,0.0156
2732.00,0.0156
2731.00,0.0156
2730.00,0.0156
2729.00,0.0156
2728.00,0.0156
2727.00,0.0156
2726.00,0.0156
2725.00,0.0156
2724.00,0.0156
2723.00,0.0156
2722.00,0.0156
2721.00,0.0156
2720.00,0.0156
2719.00,0.0156
2718.00,0.0156
2717.00,0.0156
2716.00,0.0156
2715.00,0.0156
2714.00,0.0156
2713.00,0.0156
2712.00,0.0156
2711.00,0.0156
2710.00,0.0156
2709.00,0.0157
2708.00,0.0157
2707.00,0.0157
2706.00,0.0157
2705.00,0.0158
2704.00,0.0158
2703.00,0.0158
2702.00,0.0159
2701.00,0.0159
2700.00,0.0159
2699.00,0.0159
2698.00,0.0159
2697.00,0.0159
2696.00,0.0159
2695.00,0.0159
2694.00,0.0159
2693.00,0.0159
2692.00,0.0159
2691.00,0.0159
2690.00,0.0158
2689.00,0.0158
2688.00,0.0158
2687.00,0.0157
2686.00,0.0157
2685.00,0.0157
2684.00,0.0156
2683.00,0.0156
2682.00,0.0155
2681.00,0.0155
2680.00,0.0155
2679.00,0.0154
2678.00,0.0154
2677.00,0.0154
2676.00,0.0153
2675.00,0.0153
2674.00,0.0153
2673.00,0.0153
2672.00,0.0153
2671.00,0.0153
2670.00,0.0152
2669.00,0.0152
2668.00,0.0152
2667.00,0.0152
2666.00,0.0152
2665.00,0.0152
2664.00,0.0152
2663.00,0.0152
2662.00,0.0152
2661.00,0.0152
2660.00,0.0151
2659.00,0.0151
2658.00,0.0150
2657.00,0.0150
2656.00,0.0149
2655.00,0.0149
2654.00,0.0148
2653.00,0.0147
2652.00,0.0147
2651.00,0.0146
2650.00,0.0146
2649.00,0.0145
2648.00,0.0144
2647.00,0.0144
2646.00,0.0143
2645.00,0.0143
2644.00,0.0143
2643.00,0.0142
2642.00,0.0141
2641.00,0.0141
2640.00,0.0140
2639.00,0.0139
2638.00,0.0138
2637.00,0.0138
2636.00,0.0137
2635.00,0.0137
2634.00,0.0136
2633.00,0.0136
2632.00,0.0135
2631.00,0.0135
2630.00,0.0134
2629.00,0.0134
2628.00,0.0134
2627.00,0.0133
2626.00,0.0133
2625.00,0.0132
2624.00,0.0131
2623.00,0.0131
2622.00,0.0130
2621.00,0.0130
2620.00,0.0129
2619.00,0.0129
2618.00,0.0128
2617.00,0.0128
2616.00,0.0127
2615.00,0.0127
2614.00,0.0127
2613.00,0.0127
2612.00,0.0127
2611.00,0.0127
2610.00,0.0127
2609.00,0.0127
2608.00,0.0127
2607.00,0.0127
2606.00,0.0126
2605.00,0.0126
2604.00,0.0125
2603.00,0.0125
2602.00,0.0125
2601.00,0.0125
2600.00,0.0125
2599.00,0.0124
2598.00,0.0123
2597.00,0.0123
2596.00,0.0122
2595.00,0.0122
2594.00,0.0122
2593.00,0.0121
2592.00,0.0121
2591.00,0.0120
2590.00,0.0120
2589.00,0.0119
2588.00,0.0119
2587.00,0.0118
2586.00,0.0118
2585.00,0.0117
2584.00,0.0117
2583.00,0.0117
2582.00,0.0116
2581.00,0.0116
2580.00,0.0116
2579.00,0.0115
2578.00,0.0115
2577.00,0.0115
2576.00,0.0115
2575.00,0.0114
2574.00,0.0114
2573.00,0.0114
2572.00,0.0114
2571.00,0.0114
2570.00,0.0114
2569.00,0.0114
2568.00,0.0114
2567.00,0.0114
2566.00,0.0113
2565.00,0.0113
2564.00,0.0113
2563.00,0.0113
2562.00,0.0113
2561.00,0.0112
2560.00,0.0112
2559.00,0.0112
2558.00,0.0112
2557.00,0.0112
2556.00,0.0113
2555.00,0.0113
2554.00,0.0113
2553.00,0.0113
2552.00,0.0113
2551.00,0.0113
2550.00,0.0114
2549.00,0.0114
2548.00,0.0114
2547.00,0.0114
2546.00,0.0115
2545.00,0.0115
2544.00,0.0115
2543.00,0.0115
2542.00,0.0115
2541.00,0.0114
2540.00,0.0114
2539.00,0.0114
2538.00,0.0114
2537.00,0.0114
2536.00,0.0114
2535.00,0.0114
2534.00,0.0114
2533.00,0.0113
2532.00,0.0113
2531.00,0.0112
2530.00,0.0111
2529.00,0.0111
2528.00,0.0110
2527.00,0.0110
2526.00,0.0111
2525.00,0.0111
2524.00,0.0110
2523.00,0.0110
2522.00,0.0110
2521.00,0.0109
2520.00,0.0109
2519.00,0.0109
2518.00,0.0109
2517.00,0.0109
2516.00,0.0109
2515.00,0.0110
2514.00,0.0110
2513.00,0.0110
2512.00,0.0110
2511.00,0.0110
2510.00,0.0110
2509.00,0.0110
2508.00,0.0109
2507.00,0.0109
2506.00,0.0110
2505.00,0.0110
2504.00,0.0110
2503.00,0.0110
2502.00,0.0109
2501.00,0.0109
2500.00,0.0108
2499.00,0.0108
2498.00,0.0108
2497.00,0.0108
2496.00,0.0107
2495.00,0.0107
2494.00,0.0107
2493.00,0.0107
2492.00,0.0107
2491.00,0.0107
2490.00,0.0106
2489.00,0.0106
2488.00,0.0106
2487.00,0.0106
2486.00,0.0106
2485.00,0.0105
2484.00,0.0105
2483.00,0.0105
2482.00,0.0104
2481.00,0.0104
2480.00,0.0104
2479.00,0.0104
2478.00,0.0104
2477.00,0.0103
2476.00,0.0103
2475.00,0.0103
2474.00,0.0102
2473.00,0.0102
2472.00,0.0102
2471.00,0.0102
2470.00,0.0101
2469.00,0.0100
2468.00,0.0099
2467.00,0.0099
2466.00,0.0099
2465.00,0.0099
2464.00,0.0099
2463.00,0.0099
2462.00,0.0099
2461.00,0.0100
2460.00,0.0100
2459.00,0.0100
2458.00,0.0099
2457.00,0.0099
2456.00,0.0098
2455.00,0.0098
2454.00,0.0098
2453.00,0.0097
2452.00,0.0097
2451.00,0.0097
2450.00,0.0096
2449.00,0.0096
2448.00,0.0095
2447.00,0.0095
2446.00,0.0095
2445.00,0.0094
2444.00,0.0094
2443.00,0.0094
2442.00,0.0094
2441.00,0.0093
2440.00,0.0093
2439.00,0.0093
2438.00,0.0093
2437.00,0.0093
2436.00,0.0092
2435.00,0.0092
2434.00,0.0091
2433.00,0.0091
2432.00,0.0091
2431.00,0.0091
2430.00,0.0091
2429.00,0.0091
2428.00,0.0091
2427.00,0.0091
2426.00,0.0091
2425.00,0.0091
2424.00,0.0090
2423.00,0.0090
2422.00,0.0090
2421.00,0.0090
2420.00,0.0089
2419.00,0.0089
2418.00,0.0089
2417.00,0.0088
2416.00,0.0088
2415.00,0.0088
2414.00,0.0087
2413.00,0.0087
2412.00,0.0087
2411.00,0.0087
2410.00,0.0087
2409.00,0.0086
2408.00,0.0086
2407.00,0.0085
2406.00,0.0085
2405.00,0.0085
2404.00,0.0085
2403.00,0.0085
2402.00,0.0084
2401.00,0.0084
2400.00,0.0084
2399.00,0.0084
2398.00,0.0084
2397.00,0.0083
2396.00,0.0083
2395.00,0.0083
2394.00,0.0083
2393.00,0.0083
2392.00,0.0083
2391.00,0.0083
2390.00,0.0082
2389.00,0.0082
2388.00,0.0082
2387.00,0.0082
2386.00,0.0082
2385.00,0.0081
2384.00,0.0081
2383.00,0.0081
2382.00,0.0080
2381.00,0.0079
2380.00,0.0078
2379.00,0.0077
2378.00,0.0077
2377.00,0.0077
2376.00,0.0077
2375.00,0.0077
2374.00,0.0077
2373.00,0.0076
2372.00,0.0076
2371.00,0.0076
2370.00,0.0075
2369.00,0.0074
2368.00,0.0073
2367.00,0.0073
2366.00,0.0073
2365.00,0.0074
2364.00,0.0075
2363.00,0.0075
2362.00,0.0075
2361.00,0.0075
2360.00,0.0074
2359.00,0.0074
2358.00,0.0074
2357.00,0.0074
2356.00,0.0074
2355.00,0.0074
2354.00,0.0075
2353.00,0.0075
2352.00,0.0076
2351.00,0.0076
2350.00,0.0075
2349.00,0.0075
2348.00,0.0075
2347.00,0.0075
2346.00,0.0075
2345.00,0.0075
2344.00,0.0075
2343.00,0.0074
2342.00,0.0074
2341.00,0.0074
2340.00,0.0075
2339.00,0.0075
2338.00,0.0076
2337.00,0.0077
2336.00,0.0077
2335.00,0.0077
2334.00,0.0077
2333.00,0.0077
2332.00,0.0077
2331.00,0.0077
2330.00,0.0077
2329.00,0.0079
2328.00,0.0082
2327.00,0.0085
2326.00,0.0088
2325.00,0.0089
2324.00,0.0087
2323.00,0.0085
2322.00,0.0084
2321.00,0.0082
2320.00,0.0081
2319.00,0.0081
2318.00,0.0080
2317.00,0.0079
2316.00,0.0079
2315.00,0.0079
2314.00,0.0079
2313.00,0.0078
2312.00,0.0077
2311.00,0.0076
2310.00,0.0076
2309.00,0.0075
2308.00,0.0075
2307.00,0.0075
2306.00,0.0075
2305.00,0.0075
2304.00,0.0075
2303.00,0.0075
2302.00,0.0075
2301.00,0.0075
2300.00,0.0075
2299.00,0.0076
2298.00,0.0076
2297.00,0.0077
2296.00,0.0078
2295.00,0.0078
2294.00,0.0079
2293.00,0.0080
2292.00,0.0080
2291.00,0.0081
2290.00,0.0081
2289.00,0.0083
2288.00,0.0084
2287.00,0.0084
2286.00,0.0084
2285.00,0.0084
2284.00,0.0083
2283.00,0.0082
2282.00,0.0081
2281.00,0.0081
2280.00,0.0081
2279.00,0.0081
2278.00,0.0081
2277.00,0.0081
2276.00,0.0081
2275.00,0.0081
2274.00,0.0080
2273.00,0.0080
2272.00,0.0080
2271.00,0.0080
2270.00,0.0079
2269.00,0.0079
2268.00,0.0078
2267.00,0.0078
2266.00,0.0078
2265.00,0.0078
2264.00,0.0078
2263.00,0.0078
2262.00,0.0078
2261.00,0.0079
2260.00,0.0079
2259.00,0.0078
2258.00,0.0077
2257.00,0.0075
2256.00,0.0074
2255.00,0.0073
2254.00,0.0073
2253.00,0.0074
2252.00,0.0075
2251.00,0.0075
2250.00,0.0075
2249.00,0.0075
2248.00,0.0076
2247.00,0.0076
2246.00,0.0077
2245.00,0.0076
2244.00,0.0076
2243.00,0.0075
2242.00,0.0075
2241.00,0.0074
2240.00,0.0074
2239.00,0.0074
2238.00,0.0075
2237.00,0.0075
2236.00,0.0075
2235.00,0.0075
2234.00,0.0074
2233.00,0.0074
2232.00,0.0073
2231.00,0.0074
2230.00,0.0074
2229.00,0.0073
2228.00,0.0072
2227.00,0.0072
2226.00,0.0071
2225.00,0.0071
2224.00,0.0071
2223.00,0.0072
2222.00,0.0072
2221.00,0.0073
2220.00,0.0073
2219.00,0.0073
2218.00,0.0072
2217.00,0.0070
2216.00,0.0070
2215.00,0.0070
2214.00,0.0071
2213.00,0.0071
2212.00,0.0072
2211.00,0.0072
2210.00,0.0073
2209.00,0.0073
2208.00,0.0072
2207.00,0.0072
2206.00,0.0071
2205.00,0.0071
2204.00,0.0071
2203.00,0.0071
2202.00,0.0071
2201.00,0.0071
2200.00,0.0071
2199.00,0.0071
2198.00,0.0071
2197.00,0.0072
2196.00,0.0072
2195.00,0.0072
2194.00,0.0073
2193.00,0.0075
2192.00,0.0076
2191.00,0.0077
2190.00,0.0077
2189.00,0.0078
2188.00,0.0078
2187.00,0.0078
2186.00,0.0078
2185.00,0.0077
2184.00,0.0075
2183.00,0.0072
2182.00,0.0070
2181.00,0.0070
2180.00,0.0070
2179.00,0.0072
2178.00,0.0072
2177.00,0.0071
2176.00,0.0070
2175.00,0.0071
2174.00,0.0074
2173.00,0.0078
2172.00,0.0081
2171.00,0.0083
2170.00,0.0084
2169.00,0.0084
2168.00,0.0084
2167.00,0.0084
2166.00,0.0084
2165.00,0.0084
2164.00,0.0085
2163.00,0.0083
2162.00,0.0078
2161.00,0.0068
2160.00,0.0056
2159.00,0.0046
2158.00,0.0042
2157.00,0.0043
2156.00,0.0046
2155.00,0.0048
2154.00,0.0049
2153.00,0.0050
2152.00,0.0052
2151.00,0.0055
2150.00,0.0057
2149.00,0.0058
2148.00,0.0058
2147.00,0.0057
2146.00,0.0056
2145.00,0.0056
2144.00,0.0056
2143.00,0.0057
2142.00,0.0057
2141.00,0.0058
2140.00,0.0059
2139.00,0.0059
2138.00,0.0059
2137.00,0.0057
2136.00,0.0055
2135.00,0.0052
2134.00,0.0052
2133.00,0.0053
2132.00,0.0056
2131.00,0.0058
2130.00,0.0059
2129.00,0.0060
2128.00,0.0061
2127.00,0.0061
2126.00,0.0062
2125.00,0.0063
2124.00,0.0064
2123.00,0.0066
2122.00,0.0067
2121.00,0.0068
2120.00,0.0068
2119.00,0.0069
2118.00,0.0069
2117.00,0.0069
2116.00,0.0070
2115.00,0.0070
2114.00,0.0070
2113.00,0.0069
2112.00,0.0069
2111.00,0.0069
2110.00,0.0070
2109.00,0.0070
2108.00,0.0070
2107.00,0.0069
2106.00,0.0068
2105.00,0.0067
2104.00,0.0067
2103.00,0.0067
2102.00,0.0067
2101.00,0.0068
2100.00,0.0068
2099.00,0.0067
2098.00,0.0065
2097.00,0.0063
2096.00,0.0062
2095.00,0.0061
2094.00,0.0061
2093.00,0.0063
2092.00,0.0064
2091.00,0.0065
2090.00,0.0065
2089.00,0.0065
2088.00,0.0066
2087.00,0.0066
2086.00,0.0067
2085.00,0.0068
2084.00,0.0068
2083.00,0.0068
2082.00,0.0069
2081.00,0.0070
2080.00,0.0071
2079.00,0.0071
2078.00,0.0070
2077.00,0.0069
2076.00,0.0069
2075.00,0.0069
2074.00,0.0069
2073.00,0.0069
2072.00,0.0069
2071.00,0.0068
2070.00,0.0068
2069.00,0.0068
2068.00,0.0067
2067.00,0.0067
2066.00,0.0066
2065.00,0.0066
2064.00,0.0066
2063.00,0.0066
2062.00,0.0065
2061.00,0.0065
2060.00,0.0065
2059.00,0.0065
2058.00,0.0065
2057.00,0.0065
2056.00,0.0064
2055.00,0.0063
2054.00,0.0065
2053.00,0.0069
2052.00,0.0073
2051.00,0.0073
2050.00,0.0071
2049.00,0.0067
2048.00,0.0064
2047.00,0.0062
2046.00,0.0060
2045.00,0.0060
2044.00,0.0059
2043.00,0.0058
2042.00,0.0056
2041.00,0.0055
2040.00,0.0056
2039.00,0.0057
2038.00,0.0058
2037.00,0.0057
2036.00,0.0055
2035.00,0.0051
2034.00,0.0048
2033.00,0.0046
2032.00,0.0045
2031.00,0.0045
2030.00,0.0045
2029.00,0.0046
2028.00,0.0046
2027.00,0.0047
2026.00,0.0046
2025.00,0.0046
2024.00,0.0046
2023.00,0.0045
2022.00,0.0045
2021.00,0.0044
2020.00,0.0044
2019.00,0.0044
2018.00,0.0044
2017.00,0.0044
2016.00,0.0046
2015.00,0.0047
2014.00,0.0048
2013.00,0.0048
2012.00,0.0048
2011.00,0.0047
2010.00,0.0046
2009.00,0.0044
2008.00,0.0041
2007.00,0.0039
2006.00,0.0038
2005.00,0.0038
2004.00,0.0039
2003.00,0.0041
2002.00,0.0042
2001.00,0.0043
2000.00,0.0044
1999.00,0.0045
1998.00,0.0046
1997.00,0.0047
1996.00,0.0047
1995.00,0.0046
1994.00,0.0045
1993.00,0.0044
1992.00,0.0044
1991.00,0.0044
1990.00,0.0044
1989.00,0.0044
1988.00,0.0045
1987.00,0.0046
1986.00,0.0047
1985.00,0.0050
1984.00,0.0052
1983.00,0.0055
1982.00,0.0056
1981.00,0.0056
1980.00,0.0053
1979.00,0.0047
1978.00,0.0042
1977.00,0.0039
1976.00,0.0037
1975.00,0.0036
1974.00,0.0035
1973.00,0.0035
1972.00,0.0035
1971.00,0.0036
1970.00,0.0036
1969.00,0.0036
1968.00,0.0037
1967.00,0.0038
1966.00,0.0039
1965.00,0.0041
1964.00,0.0043
1963.00,0.0045
1962.00,0.0046
1961.00,0.0045
1960.00,0.0044
1959.00,0.0042
1958.00,0.0042
1957.00,0.0043
1956.00,0.0045
1955.00,0.0047
1954.00,0.0049
1953.00,0.0050
1952.00,0.0049
1951.00,0.0049
1950.00,0.0048
1949.00,0.0048
1948.00,0.0049
1947.00,0.0051
1946.00,0.0051
1945.00,0.0051
1944.00,0.0051
1943.00,0.0051
1942.00,0.0051
1941.00,0.0052
1940.00,0.0053
1939.00,0.0054
1938.00,0.0055
1937.00,0.0055
1936.00,0.0055
1935.00,0.0055
1934.00,0.0056
1933.00,0.0056
1932.00,0.0056
1931.00,0.0057
1930.00,0.0057
1929.00,0.0056
1928.00,0.0056
1927.00,0.0055
1926.00,0.0055
1925.00,0.0055
1924.00,0.0056
1923.00,0.0056
1922.00,0.0057
1921.00,0.0058
1920.00,0.0059
1919.00,0.0059
1918.00,0.0059
1917.00,0.0059
1916.00,0.0059
1915.00,0.0059
1914.00,0.0058
1913.00,0.0058
1912.00,0.0058
1911.00,0.0058
1910.00,0.0059
1909.00,0.0059
1908.00,0.0060
1907.00,0.0060
1906.00,0.0060
1905.00,0.0061
1904.00,0.0061
1903.00,0.0061
1902.00,0.0060
1901.00,0.0060
1900.00,0.0060
1899.00,0.0060
1898.00,0.0060
1897.00,0.0061
1896.00,0.0061
1895.00,0.0061
1894.00,0.0061
1893.00,0.0061
1892.00,0.0061
1891.00,0.0061
1890.00,0.0061
1889.00,0.0061
1888.00,0.0061
1887.00,0.0061
1886.00,0.0061
1885.00,0.0062
1884.00,0.0062
1883.00,0.0062
1882.00,0.0062
1881.00,0.0062
1880.00,0.0062
1879.00,0.0062
1878.00,0.0062
1877.00,0.0061
1876.00,0.0061
1875.00,0.0061
1874.00,0.0061
1873.00,0.0062
1872.00,0.0062
1871.00,0.0062
1870.00,0.0062
1869.00,0.0061
1868.00,0.0061
1867.00,0.0061
1866.00,0.0062
1865.00,0.0062
1864.00,0.0062
1863.00,0.0063
1862.00,0.0063
1861.00,0.0063
1860.00,0.0062
1859.00,0.0062
1858.00,0.0062
1857.00,0.0062
1856.00,0.0062
1855.00,0.0063
1854.00,0.0063
1853.00,0.0063
1852.00,0.0063
1851.00,0.0063
1850.00,0.0063
1849.00,0.0063
1848.00,0.0063
1847.00,0.0063
1846.00,0.0063
1845.00,0.0064
1844.00,0.0064
1843.00,0.0063
1842.00,0.0063
1841.00,0.0063
1840.00,0.0063
1839.00,0.0062
1838.00,0.0062
1837.00,0.0062
1836.00,0.0062
1835.00,0.0062
1834.00,0.0061
1833.00,0.0061
1832.00,0.0061
1831.00,0.0061
1830.00,0.0061
1829.00,0.0061
1828.00,0.0061
1827.00,0.0061
1826.00,0.0061
1825.00,0.0061
1824.00,0.0062
1823.00,0.0062
1822.00,0.0061
1821.00,0.0061
1820.00,0.0060
1819.00,0.0059
1818.00,0.0059
1817.00,0.0059
1816.00,0.0059
1815.00,0.0060
1814.00,0.0060
1813.00,0.0061
1812.00,0.0061
1811.00,0.0062
1810.00,0.0062
1809.00,0.0062
1808.00,0.0062
1807.00,0.0062
1806.00,0.0062
1805.00,0.0062
1804.00,0.0063
1803.00,0.0063
1802.00,0.0063
1801.00,0.0063
1800.00,0.0063
1799.00,0.0063
1798.00,0.0063
1797.00,0.0063
1796.00,0.0063
1795.00,0.0063
1794.00,0.0063
1793.00,0.0064
1792.00,0.0064
1791.00,0.0064
1790.00,0.0064
1789.00,0.0064
1788.00,0.0064
1787.00,0.0064
1786.00,0.0064
1785.00,0.0064
1784.00,0.0064
1783.00,0.0064
1782.00,0.0065
1781.00,0.0065
1780.00,0.0065
1779.00,0.0064
1778.00,0.0064
1777.00,0.0064
1776.00,0.0064
1775.00,0.0064
1774.00,0.0064
1773.00,0.0064
1772.00,0.0065
1771.00,0.0065
1770.00,0.0065
1769.00,0.0065
1768.00,0.0065
1767.00,0.0065
1766.00,0.0064
1765.00,0.0064
1764.00,0.0064
1763.00,0.0065
1762.00,0.0064
1761.00,0.0064
1760.00,0.0064
1759.00,0.0063
1758.00,0.0063
1757.00,0.0063
1756.00,0.0063
1755.00,0.0063
1754.00,0.0063
1753.00,0.0062
1752.00,0.0062
1751.00,0.0062
1750.00,0.0062
1749.00,0.0061
1748.00,0.0061
1747.00,0.0060
1746.00,0.0059
1745.00,0.0059
1744.00,0.0058
1743.00,0.0058
1742.00,0.0058
1741.00,0.0057
1740.00,0.0057
1739.00,0.0056
1738.00,0.0056
1737.00,0.0055
1736.00,0.0055
1735.00,0.0055
1734.00,0.0055
1733.00,0.0055
1732.00,0.0055
1731.00,0.0055
1730.00,0.0055
1729.00,0.0055
1728.00,0.0054
1727.00,0.0054
1726.00,0.0054
1725.00,0.0054
1724.00,0.0053
1723.00,0.0053
1722.00,0.0053
1721.00,0.0053
1720.00,0.0053
1719.00,0.0053
1718.00,0.0053
1717.00,0.0053
1716.00,0.0053
1715.00,0.0052
1714.00,0.0052
1713.00,0.0052
1712.00,0.0051
1711.00,0.0051
1710.00,0.0051
1709.00,0.0051
1708.00,0.0051
1707.00,0.0051
1706.00,0.0052
1705.00,0.0052
1704.00,0.0053
1703.00,0.0054
1702.00,0.0055
1701.00,0.0056
1700.00,0.0056
1699.00,0.0056
1698.00,0.0057
1697.00,0.0058
1696.00,0.0059
1695.00,0.0060
1694.00,0.0060
1693.00,0.0060
1692.00,0.0060
1691.00,0.0061
1690.00,0.0061
1689.00,0.0061
1688.00,0.0062
1687.00,0.0062
1686.00,0.0062
1685.00,0.0063
1684.00,0.0063
1683.00,0.0064
1682.00,0.0064
1681.00,0.0064
1680.00,0.0064
1679.00,0.0065
1678.00,0.0065
1677.00,0.0065
1676.00,0.0065
1675.00,0.0066
1674.00,0.0066
1673.00,0.0066
1672.00,0.0066
1671.00,0.0066
1670.00,0.0066
1669.00,0.0067
1668.00,0.0067
1667.00,0.0067
1666.00,0.0067
1665.00,0.0067
1664.00,0.0067
1663.00,0.0068
1662.00,0.0067
1661.00,0.0067
1660.00,0.0067
1659.00,0.0067
1658.00,0.0067
1657.00,0.0067
1656.00,0.0066
1655.00,0.0066
1654.00,0.0066
1653.00,0.0066
1652.00,0.0066
1651.00,0.0066
1650.00,0.0066
1649.00,0.0066
1648.00,0.0066
1647.00,0.0066
1646.00,0.0066
1645.00,0.0066
1644.00,0.0065
1643.00,0.0065
1642.00,0.0065
1641.00,0.0065
1640.00,0.0064
1639.00,0.0064
1638.00,0.0064
1637.00,0.0064
1636.00,0.0064
1635.00,0.0064
1634.00,0.0064
1633.00,0.0064
1632.00,0.0064
1631.00,0.0064
1630.00,0.0064
1629.00,0.0064
1628.00,0.0064
1627.00,0.0064
1626.00,0.0064
1625.00,0.0065
1624.00,0.0065
1623.00,0.0065
1622.00,0.0065
1621.00,0.0065
1620.00,0.0065
1619.00,0.0065
1618.00,0.0066
1617.00,0.0066
1616.00,0.0067
1615.00,0.0067
1614.00,0.0067
1613.00,0.0067
1612.00,0.0067
1611.00,0.0067
1610.00,0.0067
1609.00,0.0067
1608.00,0.0067
1607.00,0.0067
1606.00,0.0067
1605.00,0.0067
1604.00,0.0067
1603.00,0.0067
1602.00,0.0067
1601.00,0.0068
1600.00,0.0068
1599.00,0.0068
1598.00,0.0068
1597.00,0.0069
1596.00,0.0069
1595.00,0.0069
1594.00,0.0070
1593.00,0.0070
1592.00,0.0070
1591.00,0.0071
1590.00,0.0071
1589.00,0.0071
1588.00,0.0071
1587.00,0.0071
1586.00,0.0071
1585.00,0.0071
1584.00,0.0072
1583.00,0.0072
1582.00,0.0072
1581.00,0.0072
1580.00,0.0072
1579.00,0.0072
1578.00,0.0073
1577.00,0.0073
1576.00,0.0074
1575.00,0.0074
1574.00,0.0074
1573.00,0.0074
1572.00,0.0074
1571.00,0.0074
1570.00,0.0074
1569.00,0.0074
1568.00,0.0075
1567.00,0.0075
1566.00,0.0076
1565.00,0.0076
1564.00,0.0076
1563.00,0.0076
1562.00,0.0076
1561.00,0.0076
1560.00,0.0077
1559.00,0.0077
1558.00,0.0077
1557.00,0.0077
1556.00,0.0077
1555.00,0.0078
1554.00,0.0078
1553.00,0.0079
1552.00,0.0079
1551.00,0.0080
1550.00,0.0080
1549.00,0.0080
1548.00,0.0080
1547.00,0.0081
1546.00,0.0081
1545.00,0.0081
1544.00,0.0082
1543.00,0.0082
1542.00,0.0082
1541.00,0.0082
1540.00,0.0083
1539.00,0.0084
1538.00,0.0084
1537.00,0.0084
1536.00,0.0084
1535.00,0.0085
1534.00,0.0085
1533.00,0.0085
1532.00,0.0086
1531.00,0.0086
1530.00,0.0087
1529.00,0.0087
1528.00,0.0088
1527.00,0.0089
1526.00,0.0089
1525.00,0.0089
1524.00,0.0090
1523.00,0.0090
1522.00,0.0091
1521.00,0.0091
1520.00,0.0092
1519.00,0.0092
1518.00,0.0093
1517.00,0.0093
1516.00,0.0094
1515.00,0.0095
1514.00,0.0095
1513.00,0.0096
1512.00,0.0097
1511.00,0.0098
1510.00,0.0099
1509.00,0.0099
1508.00,0.0100
1507.00,0.0102
1506.00,0.0103
1505.00,0.0103
1504.00,0.0104
1503.00,0.0105
1502.00,0.0106
1501.00,0.0106
1500.00,0.0108
1499.00,0.0109
1498.00,0.0110
1497.00,0.0112
1496.00,0.0114
1495.00,0.0116
1494.00,0.0117
1493.00,0.0119
1492.00,0.0121
1491.00,0.0123
1490.00,0.0125
1489.00,0.0128
1488.00,0.0131
1487.00,0.0133
1486.00,0.0136
1485.00,0.0139
1484.00,0.0142
1483.00,0.0145
1482.00,0.0149
1481.00,0.0154
1480.00,0.0159
1479.00,0.0164
1478.00,0.0169
1477.00,0.0176
1476.00,0.0183
1475.00,0.0190
1474.00,0.0198
1473.00,0.0209
1472.00,0.0220
1471.00,0.0232
1470.00,0.0243
1469.00,0.0256
1468.00,0.0269
1467.00,0.0284
1466.00,0.0303
1465.00,0.0326
1464.00,0.0352
1463.00,0.0377
1462.00,0.0399
1461.00,0.0418
1460.00,0.0432
1459.00,0.0439
1458.00,0.0437
1457.00,0.0428
1456.00,0.0418
1455.00,0.0409
1454.00,0.0403
1453.00,0.0400
1452.00,0.0398
1451.00,0.0399
1450.00,0.0401
1449.00,0.0405
1448.00,0.0410
1447.00,0.0416
1446.00,0.0421
1445.00,0.0425
1444.00,0.0428
1443.00,0.0430
1442.00,0.0429
1441.00,0.0426
1440.00,0.0422
1439.00,0.0417
1438.00,0.0411
1437.00,0.0406
1436.00,0.0402
1435.00,0.0400
1434.00,0.0398
1433.00,0.0397
1432.00,0.0397
1431.00,0.0398
1430.00,0.0399
1429.00,0.0400
1428.00,0.0400
1427.00,0.0399
1426.00,0.0396
1425.00,0.0392
1424.00,0.0387
1423.00,0.0382
1422.00,0.0377
1421.00,0.0371
1420.00,0.0366
1419.00,0.0362
1418.00,0.0357
1417.00,0.0354
1416.00,0.0351
1415.00,0.0349
1414.00,0.0348
1413.00,0.0347
1412.00,0.0347
1411.00,0.0347
1410.00,0.0346
1409.00,0.0345
1408.00,0.0344
1407.00,0.0341
1406.00,0.0337
1405.00,0.0332
1404.00,0.0327
1403.00,0.0320
1402.00,0.0314
1401.00,0.0307
1400.00,0.0300
1399.00,0.0292
1398.00,0.0285
1397.00,0.0279
1396.00,0.0273
1395.00,0.0268
1394.00,0.0264
1393.00,0.0261
1392.00,0.0261
1391.00,0.0264
1390.00,0.0270
1389.00,0.0281
1388.00,0.0297
1387.00,0.0317
1386.00,0.0341
1385.00,0.0366
1384.00,0.0389
1383.00,0.0408
1382.00,0.0422
1381.00,0.0429
1380.00,0.0432
1379.00,0.0431
1378.00,0.0428
1377.00,0.0427
1376.00,0.0427
1375.00,0.0430
1374.00,0.0436
1373.00,0.0442
1372.00,0.0445
1371.00,0.0442
1370.00,0.0431
1369.00,0.0414
1368.00,0.0396
1367.00,0.0379
1366.00,0.0365
1365.00,0.0354
1364.00,0.0346
1363.00,0.0339
1362.00,0.0333
1361.00,0.0326
1360.00,0.0319
1359.00,0.0313
1358.00,0.0308
1357.00,0.0306
1356.00,0.0308
1355.00,0.0312
1354.00,0.0318
1353.00,0.0328
1352.00,0.0339
1351.00,0.0351
1350.00,0.0363
1349.00,0.0373
1348.00,0.0382
1347.00,0.0388
1346.00,0.0393
1345.00,0.0402
1344.00,0.0416
1343.00,0.0435
1342.00,0.0457
1341.00,0.0476
1340.00,0.0487
1339.00,0.0489
1338.00,0.0480
1337.00,0.0465
1336.00,0.0448
1335.00,0.0432
1334.00,0.0421
1333.00,0.0415
1332.00,0.0414
1331.00,0.0414
1330.00,0.0410
1329.00,0.0399
1328.00,0.0378
1327.00,0.0352
1326.00,0.0325
1325.00,0.0300
1324.00,0.0280
1323.00,0.0264
1322.00,0.0251
1321.00,0.0240
1320.00,0.0232
1319.00,0.0225
1318.00,0.0219
1317.00,0.0215
1316.00,0.0211
1315.00,0.0208
1314.00,0.0204
1313.00,0.0202
1312.00,0.0199
1311.00,0.0198
1310.00,0.0197
1309.00,0.0197
1308.00,0.0198
1307.00,0.0200
1306.00,0.0203
1305.00,0.0208
1304.00,0.0214
1303.00,0.0221
1302.00,0.0231
1301.00,0.0241
1300.00,0.0253
1299.00,0.0264
1298.00,0.0274
1297.00,0.0280
1296.00,0.0282
1295.00,0.0279
1294.00,0.0274
1293.00,0.0266
1292.00,0.0259
1291.00,0.0253
1290.00,0.0248
1289.00,0.0246
1288.00,0.0246
1287.00,0.0248
1286.00,0.0250
1285.00,0.0254
1284.00,0.0257
1283.00,0.0260
1282.00,0.0261
1281.00,0.0260
1280.00,0.0259
1279.00,0.0256
1278.00,0.0253
1277.00,0.0249
1276.00,0.0247
1275.00,0.0244
1274.00,0.0243
1273.00,0.0242
1272.00,0.0241
1271.00,0.0240
1270.00,0.0237
1269.00,0.0234
1268.00,0.0230
1267.00,0.0225
1266.00,0.0220
1265.00,0.0214
1264.00,0.0209
1263.00,0.0203
1262.00,0.0198
1261.00,0.0193
1260.00,0.0189
1259.00,0.0185
1258.00,0.0181
1257.00,0.0178
1256.00,0.0175
1255.00,0.0173
1254.00,0.0171
1253.00,0.0169
1252.00,0.0168
1251.00,0.0166
1250.00,0.0164
1249.00,0.0163
1248.00,0.0161
1247.00,0.0159
1246.00,0.0158
1245.00,0.0157
1244.00,0.0156
1243.00,0.0155
1242.00,0.0155
1241.00,0.0155
1240.00,0.0155
1239.00,0.0157
1238.00,0.0159
1237.00,0.0163
1236.00,0.0168
1235.00,0.0174
1234.00,0.0183
1233.00,0.0193
1232.00,0.0207
1231.00,0.0225
1230.00,0.0249
1229.00,0.0278
1228.00,0.0314
1227.00,0.0351
1226.00,0.0385
1225.00,0.0411
1224.00,0.0422
1223.00,0.0417
1222.00,0.0398
1221.00,0.0369
1220.00,0.0337
1219.00,0.0304
1218.00,0.0276
1217.00,0.0252
1216.00,0.0234
1215.00,0.0221
1214.00,0.0212
1213.00,0.0208
1212.00,0.0208
1211.00,0.0212
1210.00,0.0220
1209.00,0.0232
1208.00,0.0249
1207.00,0.0272
1206.00,0.0299
1205.00,0.0325
1204.00,0.0344
1203.00,0.0351
1202.00,0.0346
1201.00,0.0329
1200.00,0.0308
1199.00,0.0285
1198.00,0.0263
1197.00,0.0245
1196.00,0.0230
1195.00,0.0218
1194.00,0.0209
1193.00,0.0201
1192.00,0.0194
1191.00,0.0188
1190.00,0.0184
1189.00,0.0179
1188.00,0.0176
1187.00,0.0173
1186.00,0.0170
1185.00,0.0168
1184.00,0.0166
1183.00,0.0164
1182.00,0.0163
1181.00,0.0162
1180.00,0.0161
1179.00,0.0161
1178.00,0.0161
1177.00,0.0162
1176.00,0.0163
1175.00,0.0164
1174.00,0.0166
1173.00,0.0169
1172.00,0.0173
1171.00,0.0178
1170.00,0.0183
1169.00,0.0190
1168.00,0.0197
1167.00,0.0205
1166.00,0.0215
1165.00,0.0227
1164.00,0.0241
1163.00,0.0258
1162.00,0.0279
1161.00,0.0305
1160.00,0.0337
1159.00,0.0374
1158.00,0.0417
1157.00,0.0466
1156.00,0.0521
1155.00,0.0579
1154.00,0.0639
1153.00,0.0700
1152.00,0.0761
1151.00,0.0818
1150.00,0.0869
1149.00,0.0912
1148.00,0.0943
1147.00,0.0960
1146.00,0.0962
1145.00,0.0948
1144.00,0.0922
1143.00,0.0885
1142.00,0.0840
1141.00,0.0792
1140.00,0.0742
1139.00,0.0693
1138.00,0.0645
1137.00,0.0600
1136.00,0.0561
1135.00,0.0528
1134.00,0.0502
1133.00,0.0482
1132.00,0.0469
1131.00,0.0458
1130.00,0.0449
1129.00,0.0441
1128.00,0.0434
1127.00,0.0432
1126.00,0.0438
1125.00,0.0456
1124.00,0.0488
1123.00,0.0534
1122.00,0.0589
1121.00,0.0648
1120.00,0.0704
1119.00,0.0751
1118.00,0.0788
1117.00,0.0821
1116.00,0.0860
1115.00,0.0914
1114.00,0.0983
1113.00,0.1057
1112.00,0.1120
1111.00,0.1157
1110.00,0.1164
1109.00,0.1153
1108.00,0.1137
1107.00,0.1128
1106.00,0.1129
1105.00,0.1133
1104.00,0.1129
1103.00,0.1108
1102.00,0.1067
1101.00,0.1008
1100.00,0.0939
1099.00,0.0868
1098.00,0.0799
1097.00,0.0737
1096.00,0.0682
1095.00,0.0633
1094.00,0.0591
1093.00,0.0553
1092.00,0.0521
1091.00,0.0494
1090.00,0.0473
1089.00,0.0458
1088.00,0.0447
1087.00,0.0442
1086.00,0.0442
1085.00,0.0448
1084.00,0.0462
1083.00,0.0482
1082.00,0.0506
1081.00,0.0530
1080.00,0.0549
1079.00,0.0560
1078.00,0.0561
1077.00,0.0555
1076.00,0.0543
1075.00,0.0526
1074.00,0.0506
1073.00,0.0484
1072.00,0.0461
1071.00,0.0442
1070.00,0.0429
1069.00,0.0424
1068.00,0.0429
1067.00,0.0440
1066.00,0.0455
1065.00,0.0469
1064.00,0.0480
1063.00,0.0490
1062.00,0.0505
1061.00,0.0530
1060.00,0.0566
1059.00,0.0611
1058.00,0.0660
1057.00,0.0708
1056.00,0.0756
1055.00,0.0809
1054.00,0.0871
1053.00,0.0941
1052.00,0.1014
1051.00,0.1078
1050.00,0.1122
1049.00,0.1141
1048.00,0.1135
1047.00,0.1103
1046.00,0.1050
1045.00,0.0982
1044.00,0.0910
1043.00,0.0845
1042.00,0.0793
1041.00,0.0759
1040.00,0.0743
1039.00,0.0744
1038.00,0.0761
1037.00,0.0792
1036.00,0.0838
1035.00,0.0894
1034.00,0.0959
1033.00,0.1026
1032.00,0.1093
1031.00,0.1157
1030.00,0.1219
1029.00,0.1280
1028.00,0.1341
1027.00,0.1402
1026.00,0.1462
1025.00,0.1519
1024.00,0.1572
1023.00,0.1615
1022.00,0.1645
1021.00,0.1658
1020.00,0.1657
1019.00,0.1646
1018.00,0.1634
1017.00,0.1630
1016.00,0.1638
1015.00,0.1650
1014.00,0.1653
1013.00,0.1638
1012.00,0.1603
1011.00,0.1557
1010.00,0.1510
1009.00,0.1472
1008.00,0.1452
1007.00,0.1451
1006.00,0.1470
1005.00,0.1506
1004.00,0.1552
1003.00,0.1600
1002.00,0.1648
1001.00,0.1692
1000.00,0.1738
999.00,0.1786
998.00,0.1840
997.00,0.1898
996.00,0.1952
995.00,0.1992
994.00,0.2007
993.00,0.1993
992.00,0.1953
991.00,0.1893
990.00,0.1823
989.00,0.1748
988.00,0.1672
987.00,0.1595
986.00,0.1517
985.00,0.1440
984.00,0.1366
983.00,0.1294
982.00,0.1227
981.00,0.1165
980.00,0.1108
979.00,0.1056
978.00,0.1008
977.00,0.0963
976.00,0.0922
975.00,0.0884
974.00,0.0849
973.00,0.0816
972.00,0.0786
971.00,0.0758
970.00,0.0732
969.00,0.0708
968.00,0.0685
967.00,0.0664
966.00,0.0644
965.00,0.0625
964.00,0.0608
963.00,0.0591
962.00,0.0575
961.00,0.0560
960.00,0.0545
959.00,0.0531
958.00,0.0518
957.00,0.0505
956.00,0.0493
955.00,0.0482
954.00,0.0470
953.00,0.0459
952.00,0.0449
951.00,0.0439
950.00,0.0430
949.00,0.0421
948.00,0.0413
947.00,0.0404
946.00,0.0395
945.00,0.0388
944.00,0.0380
943.00,0.0373
942.00,0.0367
941.00,0.0360
940.00,0.0355
939.00,0.0349
938.00,0.0344
937.00,0.0339
936.00,0.0335
935.00,0.0330
934.00,0.0327
933.00,0.0323
932.00,0.0321
931.00,0.0320
930.00,0.0320
929.00,0.0322
928.00,0.0324
927.00,0.0328
926.00,0.0334
925.00,0.0343
924.00,0.0357
923.00,0.0381
922.00,0.0419
921.00,0.0473
920.00,0.0542
919.00,0.0620
918.00,0.0694
917.00,0.0751
916.00,0.0780
915.00,0.0776
914.00,0.0742
913.00,0.0689
912.00,0.0629
911.00,0.0571
910.00,0.0521
909.00,0.0480
908.00,0.0447
907.00,0.0420
906.00,0.0397
905.00,0.0378
904.00,0.0363
903.00,0.0350
902.00,0.0339
901.00,0.0330
900.00,0.0322
899.00,0.0314
898.00,0.0307
897.00,0.0301
896.00,0.0295
895.00,0.0291
894.00,0.0287
893.00,0.0284
892.00,0.0281
891.00,0.0277
890.00,0.0274
889.00,0.0271
888.00,0.0267
887.00,0.0264
886.00,0.0262
885.00,0.0260
884.00,0.0258
883.00,0.0256
882.00,0.0254
881.00,0.0252
880.00,0.0250
879.00,0.0249
878.00,0.0248
877.00,0.0247
876.00,0.0247
875.00,0.0246
874.00,0.0246
873.00,0.0245
872.00,0.0245
871.00,0.0244
870.00,0.0243
869.00,0.0243
868.00,0.0242
867.00,0.0242
866.00,0.0242
865.00,0.0243
864.00,0.0244
863.00,0.0246
862.00,0.0249
861.00,0.0252
860.00,0.0257
859.00,0.0263
858.00,0.0271
857.00,0.0279
856.00,0.0289
855.00,0.0298
854.00,0.0305
853.00,0.0310
852.00,0.0312
851.00,0.0312
850.00,0.0312
849.00,0.0312
848.00,0.0317
847.00,0.0326
846.00,0.0342
845.00,0.0368
844.00,0.0406
843.00,0.0459
842.00,0.0527
841.00,0.0605
840.00,0.0680
839.00,0.0734
838.00,0.0751
837.00,0.0728
836.00,0.0675
835.00,0.0608
834.00,0.0543
833.00,0.0485
832.00,0.0438
831.00,0.0400
830.00,0.0369
829.00,0.0346
828.00,0.0328
827.00,0.0315
826.00,0.0305
825.00,0.0296
824.00,0.0290
823.00,0.0284
822.00,0.0280
821.00,0.0277
820.00,0.0275
819.00,0.0273
818.00,0.0271
817.00,0.0270
816.00,0.0269
815.00,0.0269
814.00,0.0269
813.00,0.0269
812.00,0.0270
811.00,0.0271
810.00,0.0272
809.00,0.0273
808.00,0.0274
807.00,0.0275
806.00,0.0276
805.00,0.0277
804.00,0.0279
803.00,0.0281
802.00,0.0283
801.00,0.0286
800.00,0.0289
799.00,0.0292
798.00,0.0295
797.00,0.0298
796.00,0.0301
795.00,0.0305
794.00,0.0309
793.00,0.0313
792.00,0.0319
791.00,0.0325
790.00,0.0333
789.00,0.0342
788.00,0.0353
787.00,0.0366
786.00,0.0383
785.00,0.0404
784.00,0.0432
783.00,0.0467
782.00,0.0511
781.00,0.0563
780.00,0.0621
779.00,0.0680
778.00,0.0733
777.00,0.0777
776.00,0.0806
775.00,0.0819
774.00,0.0818
773.00,0.0805
772.00,0.0781
771.00,0.0751
770.00,0.0718
769.00,0.0684
768.00,0.0653
767.00,0.0625
766.00,0.0601
765.00,0.0582
764.00,0.0566
763.00,0.0554
762.00,0.0544
761.00,0.0537
760.00,0.0531
759.00,0.0528
758.00,0.0526
757.00,0.0525
756.00,0.0526
755.00,0.0528
754.00,0.0530
753.00,0.0532
752.00,0.0536
751.00,0.0541
750.00,0.0546
749.00,0.0550
748.00,0.0555
747.00,0.0560
746.00,0.0565
745.00,0.0571
744.00,0.0577
743.00,0.0582
742.00,0.0587
741.00,0.0591
740.00,0.0596
739.00,0.0600
738.00,0.0604
737.00,0.0607
736.00,0.0610
735.00,0.0613
734.00,0.0615
733.00,0.0618
732.00,0.0619
731.00,0.0620
730.00,0.0621
729.00,0.0622
728.00,0.0623
727.00,0.0623
726.00,0.0623
725.00,0.0623
724.00,0.0623
723.00,0.0623
722.00,0.0623
721.00,0.0624
720.00,0.0624
719.00,0.0624
718.00,0.0624
717.00,0.0623
716.00,0.0620
715.00,0.0617
714.00,0.0612
713.00,0.0607
712.00,0.0602
711.00,0.0596
710.00,0.0591
709.00,0.0586
708.00,0.0582
707.00,0.0578
706.00,0.0574
705.00,0.0570
704.00,0.0567
703.00,0.0565
702.00,0.0562
701.00,0.0560
700.00,0.0558
699.00,0.0556
698.00,0.0555
697.00,0.0554
696.00,0.0554
695.00,0.0553
694.00,0.0553
693.00,0.0553
692.00,0.0553
691.00,0.0554
690.00,0.0555
689.00,0.0556
688.00,0.0558
687.00,0.0561
686.00,0.0563
685.00,0.0566
684.00,0.0569
683.00,0.0572
682.00,0.0575
681.00,0.0578
680.00,0.0582
679.00,0.0585
678.00,0.0590
677.00,0.0595
676.00,0.0600
675.00,0.0606
674.00,0.0611
673.00,0.0617
672.00,0.0623
671.00,0.0628
670.00,0.0634
669.00,0.0643
668.00,0.0659
667.00,0.0677
666.00,0.0688
665.00,0.0693
664.00,0.0700
663.00,0.0711
662.00,0.0725
661.00,0.0741
660.00,0.0760
659.00,0.0782
658.00,0.0806
657.00,0.0833
656.00,0.0863
655.00,0.0898
654.00,0.0934
653.00,0.0972
652.00,0.1012
651.00,0.1050
650.00,0.1084
649.00,0.1114
648.00,0.1137
647.00,0.1152
646.00,0.1156
645.00,0.1152
644.00,0.1143
643.00,0.1131
642.00,0.1119
641.00,0.1110
640.00,0.1107
639.00,0.1109
638.00,0.1116
637.00,0.1126
636.00,0.1140
635.00,0.1155
634.00,0.1170
633.00,0.1186
632.00,0.1204
631.00,0.1222
630.00,0.1240
629.00,0.1258
628.00,0.1277
627.00,0.1296
626.00,0.1313
625.00,0.1328
624.00,0.1344
623.00,0.1358
622.00,0.1370
621.00,0.1382
620.00,0.1393
619.00,0.1402
618.00,0.1408
617.00,0.1412
616.00,0.1416
615.00,0.1418
614.00,0.1418
613.00,0.1418
612.00,0.1417
611.00,0.1414
610.00,0.1408
609.00,0.1400
608.00,0.1393
607.00,0.1385
606.00,0.1376
605.00,0.1368
604.00,0.1360
603.00,0.1352
602.00,0.1343
601.00,0.1332
600.00,0.1320
599.00,0.1307
598.00,0.1292
597.00,0.1274
596.00,0.1253
595.00,0.1228
594.00,0.1199
593.00,0.1167
592.00,0.1135
591.00,0.1104
590.00,0.1076
589.00,0.1053
588.00,0.1035
587.00,0.1022
586.00,0.1011
585.00,0.1003
584.00,0.0998
583.00,0.0994
582.00,0.0991
581.00,0.0989
580.00,0.0989
579.00,0.0987
578.00,0.0984
577.00,0.0982
576.00,0.0981
575.00,0.0980
574.00,0.0979
573.00,0.0979
572.00,0.0980
571.00,0.0981
570.00,0.0982
569.00,0.0985
568.00,0.0990
567.00,0.0998
566.00,0.1006
565.00,0.1016
564.00,0.1030
563.00,0.1046
562.00,0.1065
561.00,0.1085
560.00,0.1106
559.00,0.1126
558.00,0.1142
557.00,0.1152
556.00,0.1154
555.00,0.1149
554.00,0.1138
553.00,0.1126
552.00,0.1115
551.00,0.1104
550.00,0.1094
549.00,0.1088
548.00,0.1085
547.00,0.1085
546.00,0.1087
545.00,0.1088
544.00,0.1086
543.00,0.1080
542.00,0.1074
541.00,0.1074
540.00,0.1085
539.00,0.1100
538.00,0.1112
537.00,0.1117
536.00,0.1114
535.00,0.1104
534.00,0.1090
533.00,0.1075
532.00,0.1062
531.00,0.1050
530.00,0.1038
529.00,0.1028
528.00,0.1018
527.00,0.1007
526.00,0.0995
525.00,0.0983
524.00,0.0972
523.00,0.0961
522.00,0.0949
521.00,0.0936
520.00,0.0925
519.00,0.0915
518.00,0.0907
517.00,0.0902
516.00,0.0897
515.00,0.0892
514.00,0.0884
513.00,0.0873
512.00,0.0862
511.00,0.0850
510.00,0.0838
509.00,0.0827
508.00,0.0816
507.00,0.0806
506.00,0.0796
505.00,0.0786
504.00,0.0777
503.00,0.0769
502.00,0.0760
501.00,0.0753
500.00,0.0746
499.00,0.0739
498.00,0.0731
497.00,0.0723
496.00,0.0716
495.00,0.0709
494.00,0.0702
493.00,0.0695
492.00,0.0689
491.00,0.0682
490.00,0.0677
489.00,0.0672
488.00,0.0666
487.00,0.0660
486.00,0.0653
485.00,0.0648
484.00,0.0644
483.00,0.0639
482.00,0.0634
481.00,0.0628
480.00,0.0622
479.00,0.0616
478.00,0.0611
477.00,0.0606
476.00,0.0602
475.00,0.0599
474.00,0.0593
473.00,0.0585
472.00,0.0577
471.00,0.0570
470.00,0.0565
469.00,0.0562
468.00,0.0559
467.00,0.0554
466.00,0.0548
465.00,0.0542
464.00,0.0539
463.00,0.0537
462.00,0.0534
461.00,0.0530
460.00,0.0525
459.00,0.0519
458.00,0.0513
457.00,0.0507
456.00,0.0502
455.00,0.0498
454.00,0.0492
453.00,0.0486
452.00,0.0481
451.00,0.0477
450.00,0.0472
449.00,0.0467
448.00,0.0463
447.00,0.0460
446.00,0.0458
445.00,0.0458
444.00,0.0460
443.00,0.0462
442.00,0.0466
441.00,0.0472
440.00,0.0486
439.00,0.0510
438.00,0.0547
437.00,0.0592
436.00,0.0636
435.00,0.0663
434.00,0.0664
433.00,0.0642
432.00,0.0608
431.00,0.0573
430.00,0.0544
429.00,0.0524
428.00,0.0514
427.00,0.0513
426.00,0.0518
425.00,0.0528
424.00,0.0541
423.00,0.0552
422.00,0.0557
421.00,0.0553
420.00,0.0541
419.00,0.0524
418.00,0.0509
417.00,0.0500
416.00,0.0500
415.00,0.0508
414.00,0.0524
413.00,0.0550
412.00,0.0586
411.00,0.0633
410.00,0.0689
409.00,0.0755
408.00,0.0824
407.00,0.0883
406.00,0.0916
405.00,0.0915
404.00,0.0885
403.00,0.0832
402.00,0.0767
401.00,0.0702
400.00,0.0642
