Created as New Dataset,Sample 856 By YargerLab Date Saturday, April 18 2026
cm-1,A
4000.00,0.0053
3999.00,0.0053
3998.00,0.0054
3997.00,0.0054
3996.00,0.0054
3995.00,0.0054
3994.00,0.0053
3993.00,0.0053
3992.00,0.0053
3991.00,0.0053
3990.00,0.0053
3989.00,0.0053
3988.00,0.0053
3987.00,0.0053
3986.00,0.0053
3985.00,0.0053
3984.00,0.0053
3983.00,0.0053
3982.00,0.0052
3981.00,0.0052
3980.00,0.0052
3979.00,0.0052
3978.00,0.0052
3977.00,0.0052
3976.00,0.0052
3975.00,0.0052
3974.00,0.0052
3973.00,0.0052
3972.00,0.0052
3971.00,0.0052
3970.00,0.0052
3969.00,0.0052
3968.00,0.0052
3967.00,0.0052
3966.00,0.0052
3965.00,0.0052
3964.00,0.0052
3963.00,0.0052
3962.00,0.0052
3961.00,0.0052
3960.00,0.0051
3959.00,0.0051
3958.00,0.0051
3957.00,0.0051
3956.00,0.0051
3955.00,0.0051
3954.00,0.0051
3953.00,0.0051
3952.00,0.0051
3951.00,0.0051
3950.00,0.0051
3949.00,0.0051
3948.00,0.0051
3947.00,0.0052
3946.00,0.0052
3945.00,0.0052
3944.00,0.0051
3943.00,0.0051
3942.00,0.0051
3941.00,0.0051
3940.00,0.0051
3939.00,0.0051
3938.00,0.0051
3937.00,0.0051
3936.00,0.0051
3935.00,0.0051
3934.00,0.0051
3933.00,0.0051
3932.00,0.0051
3931.00,0.0051
3930.00,0.0051
3929.00,0.0051
3928.00,0.0051
3927.00,0.0051
3926.00,0.0051
3925.00,0.0051
3924.00,0.0050
3923.00,0.0050
3922.00,0.0050
3921.00,0.0050
3920.00,0.0050
3919.00,0.0050
3918.00,0.0050
3917.00,0.0050
3916.00,0.0050
3915.00,0.0050
3914.00,0.0050
3913.00,0.0050
3912.00,0.0050
3911.00,0.0050
3910.00,0.0050
3909.00,0.0050
3908.00,0.0050
3907.00,0.0050
3906.00,0.0050
3905.00,0.0050
3904.00,0.0050
3903.00,0.0050
3902.00,0.0050
3901.00,0.0050
3900.00,0.0050
3899.00,0.0050
3898.00,0.0049
3897.00,0.0049
3896.00,0.0049
3895.00,0.0049
3894.00,0.0049
3893.00,0.0049
3892.00,0.0049
3891.00,0.0049
3890.00,0.0049
3889.00,0.0049
3888.00,0.0049
3887.00,0.0048
3886.00,0.0048
3885.00,0.0049
3884.00,0.0049
3883.00,0.0049
3882.00,0.0049
3881.00,0.0049
3880.00,0.0048
3879.00,0.0048
3878.00,0.0048
3877.00,0.0048
3876.00,0.0048
3875.00,0.0048
3874.00,0.0049
3873.00,0.0049
3872.00,0.0049
3871.00,0.0049
3870.00,0.0049
3869.00,0.0049
3868.00,0.0048
3867.00,0.0048
3866.00,0.0047
3865.00,0.0047
3864.00,0.0047
3863.00,0.0048
3862.00,0.0048
3861.00,0.0048
3860.00,0.0048
3859.00,0.0048
3858.00,0.0048
3857.00,0.0048
3856.00,0.0048
3855.00,0.0048
3854.00,0.0048
3853.00,0.0048
3852.00,0.0048
3851.00,0.0048
3850.00,0.0048
3849.00,0.0048
3848.00,0.0048
3847.00,0.0048
3846.00,0.0047
3845.00,0.0047
3844.00,0.0047
3843.00,0.0047
3842.00,0.0047
3841.00,0.0047
3840.00,0.0047
3839.00,0.0047
3838.00,0.0047
3837.00,0.0047
3836.00,0.0048
3835.00,0.0047
3834.00,0.0047
3833.00,0.0047
3832.00,0.0047
3831.00,0.0048
3830.00,0.0048
3829.00,0.0047
3828.00,0.0047
3827.00,0.0047
3826.00,0.0046
3825.00,0.0046
3824.00,0.0046
3823.00,0.0046
3822.00,0.0046
3821.00,0.0047
3820.00,0.0047
3819.00,0.0047
3818.00,0.0047
3817.00,0.0047
3816.00,0.0047
3815.00,0.0047
3814.00,0.0047
3813.00,0.0046
3812.00,0.0046
3811.00,0.0046
3810.00,0.0046
3809.00,0.0046
3808.00,0.0046
3807.00,0.0046
3806.00,0.0047
3805.00,0.0047
3804.00,0.0047
3803.00,0.0047
3802.00,0.0046
3801.00,0.0046
3800.00,0.0046
3799.00,0.0046
3798.00,0.0046
3797.00,0.0046
3796.00,0.0046
3795.00,0.0046
3794.00,0.0046
3793.00,0.0046
3792.00,0.0046
3791.00,0.0046
3790.00,0.0046
3789.00,0.0046
3788.00,0.0046
3787.00,0.0046
3786.00,0.0046
3785.00,0.0046
3784.00,0.0046
3783.00,0.0046
3782.00,0.0046
3781.00,0.0046
3780.00,0.0045
3779.00,0.0045
3778.00,0.0045
3777.00,0.0045
3776.00,0.0045
3775.00,0.0045
3774.00,0.0045
3773.00,0.0045
3772.00,0.0045
3771.00,0.0045
3770.00,0.0045
3769.00,0.0045
3768.00,0.0045
3767.00,0.0045
3766.00,0.0045
3765.00,0.0045
3764.00,0.0045
3763.00,0.0045
3762.00,0.0045
3761.00,0.0045
3760.00,0.0044
3759.00,0.0044
3758.00,0.0044
3757.00,0.0044
3756.00,0.0044
3755.00,0.0044
3754.00,0.0044
3753.00,0.0044
3752.00,0.0044
3751.00,0.0044
3750.00,0.0044
3749.00,0.0044
3748.00,0.0044
3747.00,0.0044
3746.00,0.0044
3745.00,0.0044
3744.00,0.0044
3743.00,0.0044
3742.00,0.0044
3741.00,0.0043
3740.00,0.0043
3739.00,0.0043
3738.00,0.0043
3737.00,0.0043
3736.00,0.0043
3735.00,0.0043
3734.00,0.0042
3733.00,0.0042
3732.00,0.0042
3731.00,0.0042
3730.00,0.0042
3729.00,0.0042
3728.00,0.0042
3727.00,0.0042
3726.00,0.0042
3725.00,0.0042
3724.00,0.0042
3723.00,0.0042
3722.00,0.0042
3721.00,0.0042
3720.00,0.0042
3719.00,0.0042
3718.00,0.0042
3717.00,0.0042
3716.00,0.0042
3715.00,0.0042
3714.00,0.0042
3713.00,0.0042
3712.00,0.0042
3711.00,0.0041
3710.00,0.0041
3709.00,0.0041
3708.00,0.0041
3707.00,0.0041
3706.00,0.0041
3705.00,0.0041
3704.00,0.0041
3703.00,0.0041
3702.00,0.0041
3701.00,0.0041
3700.00,0.0041
3699.00,0.0041
3698.00,0.0041
3697.00,0.0041
3696.00,0.0041
3695.00,0.0041
3694.00,0.0041
3693.00,0.0041
3692.00,0.0041
3691.00,0.0040
3690.00,0.0040
3689.00,0.0040
3688.00,0.0040
3687.00,0.0040
3686.00,0.0040
3685.00,0.0040
3684.00,0.0040
3683.00,0.0040
3682.00,0.0040
3681.00,0.0040
3680.00,0.0040
3679.00,0.0039
3678.00,0.0039
3677.00,0.0039
3676.00,0.0038
3675.00,0.0039
3674.00,0.0039
3673.00,0.0039
3672.00,0.0039
3671.00,0.0038
3670.00,0.0039
3669.00,0.0039
3668.00,0.0039
3667.00,0.0039
3666.00,0.0039
3665.00,0.0038
3664.00,0.0038
3663.00,0.0038
3662.00,0.0038
3661.00,0.0038
3660.00,0.0039
3659.00,0.0039
3658.00,0.0039
3657.00,0.0038
3656.00,0.0038
3655.00,0.0038
3654.00,0.0037
3653.00,0.0037
3652.00,0.0037
3651.00,0.0037
3650.00,0.0037
3649.00,0.0037
3648.00,0.0038
3647.00,0.0038
3646.00,0.0038
3645.00,0.0038
3644.00,0.0038
3643.00,0.0038
3642.00,0.0038
3641.00,0.0038
3640.00,0.0038
3639.00,0.0037
3638.00,0.0037
3637.00,0.0037
3636.00,0.0037
3635.00,0.0037
3634.00,0.0037
3633.00,0.0037
3632.00,0.0037
3631.00,0.0037
3630.00,0.0037
3629.00,0.0037
3628.00,0.0037
3627.00,0.0037
3626.00,0.0037
3625.00,0.0037
3624.00,0.0037
3623.00,0.0038
3622.00,0.0038
3621.00,0.0038
3620.00,0.0038
3619.00,0.0038
3618.00,0.0038
3617.00,0.0038
3616.00,0.0038
3615.00,0.0038
3614.00,0.0038
3613.00,0.0038
3612.00,0.0038
3611.00,0.0038
3610.00,0.0038
3609.00,0.0038
3608.00,0.0038
3607.00,0.0038
3606.00,0.0038
3605.00,0.0038
3604.00,0.0038
3603.00,0.0038
3602.00,0.0038
3601.00,0.0038
3600.00,0.0039
3599.00,0.0039
3598.00,0.0039
3597.00,0.0039
3596.00,0.0039
3595.00,0.0039
3594.00,0.0039
3593.00,0.0039
3592.00,0.0039
3591.00,0.0039
3590.00,0.0039
3589.00,0.0039
3588.00,0.0039
3587.00,0.0039
3586.00,0.0040
3585.00,0.0040
3584.00,0.0041
3583.00,0.0041
3582.00,0.0041
3581.00,0.0042
3580.00,0.0042
3579.00,0.0042
3578.00,0.0042
3577.00,0.0042
3576.00,0.0042
3575.00,0.0043
3574.00,0.0043
3573.00,0.0043
3572.00,0.0043
3571.00,0.0043
3570.00,0.0044
3569.00,0.0044
3568.00,0.0044
3567.00,0.0044
3566.00,0.0045
3565.00,0.0045
3564.00,0.0046
3563.00,0.0046
3562.00,0.0046
3561.00,0.0047
3560.00,0.0047
3559.00,0.0047
3558.00,0.0048
3557.00,0.0048
3556.00,0.0048
3555.00,0.0049
3554.00,0.0049
3553.00,0.0049
3552.00,0.0050
3551.00,0.0050
3550.00,0.0051
3549.00,0.0051
3548.00,0.0052
3547.00,0.0052
3546.00,0.0053
3545.00,0.0053
3544.00,0.0054
3543.00,0.0054
3542.00,0.0055
3541.00,0.0055
3540.00,0.0056
3539.00,0.0057
3538.00,0.0057
3537.00,0.0058
3536.00,0.0059
3535.00,0.0059
3534.00,0.0060
3533.00,0.0060
3532.00,0.0061
3531.00,0.0062
3530.00,0.0062
3529.00,0.0063
3528.00,0.0064
3527.00,0.0065
3526.00,0.0066
3525.00,0.0067
3524.00,0.0067
3523.00,0.0068
3522.00,0.0068
3521.00,0.0069
3520.00,0.0070
3519.00,0.0071
3518.00,0.0071
3517.00,0.0072
3516.00,0.0073
3515.00,0.0074
3514.00,0.0075
3513.00,0.0075
3512.00,0.0076
3511.00,0.0077
3510.00,0.0077
3509.00,0.0078
3508.00,0.0079
3507.00,0.0079
3506.00,0.0080
3505.00,0.0080
3504.00,0.0081
3503.00,0.0082
3502.00,0.0082
3501.00,0.0083
3500.00,0.0084
3499.00,0.0085
3498.00,0.0086
3497.00,0.0087
3496.00,0.0088
3495.00,0.0089
3494.00,0.0090
3493.00,0.0091
3492.00,0.0092
3491.00,0.0093
3490.00,0.0094
3489.00,0.0095
3488.00,0.0097
3487.00,0.0098
3486.00,0.0099
3485.00,0.0101
3484.00,0.0102
3483.00,0.0103
3482.00,0.0105
3481.00,0.0106
3480.00,0.0108
3479.00,0.0109
3478.00,0.0111
3477.00,0.0113
3476.00,0.0114
3475.00,0.0116
3474.00,0.0118
3473.00,0.0120
3472.00,0.0122
3471.00,0.0123
3470.00,0.0125
3469.00,0.0127
3468.00,0.0129
3467.00,0.0131
3466.00,0.0133
3465.00,0.0136
3464.00,0.0138
3463.00,0.0140
3462.00,0.0143
3461.00,0.0145
3460.00,0.0148
3459.00,0.0150
3458.00,0.0152
3457.00,0.0155
3456.00,0.0158
3455.00,0.0160
3454.00,0.0163
3453.00,0.0166
3452.00,0.0169
3451.00,0.0171
3450.00,0.0174
3449.00,0.0177
3448.00,0.0180
3447.00,0.0183
3446.00,0.0185
3445.00,0.0188
3444.00,0.0191
3443.00,0.0193
3442.00,0.0196
3441.00,0.0199
3440.00,0.0202
3439.00,0.0205
3438.00,0.0208
3437.00,0.0211
3436.00,0.0214
3435.00,0.0217
3434.00,0.0220
3433.00,0.0223
3432.00,0.0227
3431.00,0.0230
3430.00,0.0235
3429.00,0.0239
3428.00,0.0244
3427.00,0.0249
3426.00,0.0255
3425.00,0.0262
3424.00,0.0269
3423.00,0.0278
3422.00,0.0287
3421.00,0.0298
3420.00,0.0309
3419.00,0.0322
3418.00,0.0335
3417.00,0.0350
3416.00,0.0364
3415.00,0.0380
3414.00,0.0395
3413.00,0.0409
3412.00,0.0423
3411.00,0.0435
3410.00,0.0445
3409.00,0.0454
3408.00,0.0460
3407.00,0.0465
3406.00,0.0467
3405.00,0.0469
3404.00,0.0470
3403.00,0.0470
3402.00,0.0471
3401.00,0.0471
3400.00,0.0471
3399.00,0.0471
3398.00,0.0472
3397.00,0.0472
3396.00,0.0474
3395.00,0.0475
3394.00,0.0475
3393.00,0.0475
3392.00,0.0474
3391.00,0.0473
3390.00,0.0470
3389.00,0.0467
3388.00,0.0463
3387.00,0.0460
3386.00,0.0456
3385.00,0.0452
3384.00,0.0449
3383.00,0.0446
3382.00,0.0444
3381.00,0.0442
3380.00,0.0440
3379.00,0.0438
3378.00,0.0437
3377.00,0.0436
3376.00,0.0436
3375.00,0.0437
3374.00,0.0437
3373.00,0.0439
3372.00,0.0441
3371.00,0.0443
3370.00,0.0445
3369.00,0.0448
3368.00,0.0451
3367.00,0.0454
3366.00,0.0457
3365.00,0.0460
3364.00,0.0464
3363.00,0.0468
3362.00,0.0472
3361.00,0.0476
3360.00,0.0480
3359.00,0.0484
3358.00,0.0488
3357.00,0.0492
3356.00,0.0496
3355.00,0.0500
3354.00,0.0503
3353.00,0.0506
3352.00,0.0509
3351.00,0.0512
3350.00,0.0514
3349.00,0.0516
3348.00,0.0518
3347.00,0.0520
3346.00,0.0522
3345.00,0.0524
3344.00,0.0526
3343.00,0.0528
3342.00,0.0530
3341.00,0.0532
3340.00,0.0535
3339.00,0.0537
3338.00,0.0540
3337.00,0.0543
3336.00,0.0545
3335.00,0.0548
3334.00,0.0551
3333.00,0.0554
3332.00,0.0558
3331.00,0.0562
3330.00,0.0567
3329.00,0.0571
3328.00,0.0576
3327.00,0.0581
3326.00,0.0587
3325.00,0.0592
3324.00,0.0596
3323.00,0.0601
3322.00,0.0606
3321.00,0.0611
3320.00,0.0617
3319.00,0.0622
3318.00,0.0627
3317.00,0.0632
3316.00,0.0637
3315.00,0.0642
3314.00,0.0646
3313.00,0.0651
3312.00,0.0655
3311.00,0.0658
3310.00,0.0662
3309.00,0.0665
3308.00,0.0668
3307.00,0.0671
3306.00,0.0673
3305.00,0.0674
3304.00,0.0675
3303.00,0.0675
3302.00,0.0675
3301.00,0.0676
3300.00,0.0676
3299.00,0.0676
3298.00,0.0676
3297.00,0.0677
3296.00,0.0677
3295.00,0.0677
3294.00,0.0677
3293.00,0.0676
3292.00,0.0676
3291.00,0.0676
3290.00,0.0675
3289.00,0.0675
3288.00,0.0675
3287.00,0.0676
3286.00,0.0676
3285.00,0.0677
3284.00,0.0677
3283.00,0.0678
3282.00,0.0679
3281.00,0.0679
3280.00,0.0681
3279.00,0.0682
3278.00,0.0683
3277.00,0.0685
3276.00,0.0686
3275.00,0.0688
3274.00,0.0689
3273.00,0.0691
3272.00,0.0693
3271.00,0.0694
3270.00,0.0695
3269.00,0.0695
3268.00,0.0696
3267.00,0.0697
3266.00,0.0697
3265.00,0.0698
3264.00,0.0699
3263.00,0.0700
3262.00,0.0701
3261.00,0.0702
3260.00,0.0703
3259.00,0.0704
3258.00,0.0705
3257.00,0.0706
3256.00,0.0707
3255.00,0.0707
3254.00,0.0707
3253.00,0.0707
3252.00,0.0707
3251.00,0.0708
3250.00,0.0708
3249.00,0.0708
3248.00,0.0709
3247.00,0.0709
3246.00,0.0708
3245.00,0.0708
3244.00,0.0708
3243.00,0.0707
3242.00,0.0707
3241.00,0.0706
3240.00,0.0706
3239.00,0.0705
3238.00,0.0704
3237.00,0.0704
3236.00,0.0703
3235.00,0.0703
3234.00,0.0702
3233.00,0.0701
3232.00,0.0700
3231.00,0.0699
3230.00,0.0698
3229.00,0.0697
3228.00,0.0696
3227.00,0.0695
3226.00,0.0694
3225.00,0.0693
3224.00,0.0693
3223.00,0.0692
3222.00,0.0692
3221.00,0.0691
3220.00,0.0691
3219.00,0.0690
3218.00,0.0690
3217.00,0.0689
3216.00,0.0689
3215.00,0.0688
3214.00,0.0688
3213.00,0.0687
3212.00,0.0686
3211.00,0.0686
3210.00,0.0685
3209.00,0.0685
3208.00,0.0684
3207.00,0.0684
3206.00,0.0683
3205.00,0.0683
3204.00,0.0682
3203.00,0.0681
3202.00,0.0680
3201.00,0.0679
3200.00,0.0678
3199.00,0.0676
3198.00,0.0675
3197.00,0.0674
3196.00,0.0672
3195.00,0.0671
3194.00,0.0669
3193.00,0.0667
3192.00,0.0665
3191.00,0.0664
3190.00,0.0662
3189.00,0.0659
3188.00,0.0657
3187.00,0.0655
3186.00,0.0652
3185.00,0.0650
3184.00,0.0647
3183.00,0.0644
3182.00,0.0641
3181.00,0.0638
3180.00,0.0635
3179.00,0.0633
3178.00,0.0630
3177.00,0.0627
3176.00,0.0624
3175.00,0.0620
3174.00,0.0617
3173.00,0.0614
3172.00,0.0610
3171.00,0.0607
3170.00,0.0604
3169.00,0.0601
3168.00,0.0597
3167.00,0.0594
3166.00,0.0591
3165.00,0.0587
3164.00,0.0584
3163.00,0.0581
3162.00,0.0577
3161.00,0.0574
3160.00,0.0571
3159.00,0.0567
3158.00,0.0564
3157.00,0.0560
3156.00,0.0557
3155.00,0.0554
3154.00,0.0551
3153.00,0.0547
3152.00,0.0544
3151.00,0.0540
3150.00,0.0536
3149.00,0.0533
3148.00,0.0529
3147.00,0.0526
3146.00,0.0523
3145.00,0.0520
3144.00,0.0517
3143.00,0.0513
3142.00,0.0510
3141.00,0.0507
3140.00,0.0504
3139.00,0.0500
3138.00,0.0497
3137.00,0.0494
3136.00,0.0490
3135.00,0.0487
3134.00,0.0483
3133.00,0.0480
3132.00,0.0477
3131.00,0.0474
3130.00,0.0471
3129.00,0.0468
3128.00,0.0465
3127.00,0.0461
3126.00,0.0458
3125.00,0.0455
3124.00,0.0452
3123.00,0.0448
3122.00,0.0446
3121.00,0.0443
3120.00,0.0440
3119.00,0.0437
3118.00,0.0434
3117.00,0.0431
3116.00,0.0428
3115.00,0.0425
3114.00,0.0421
3113.00,0.0418
3112.00,0.0415
3111.00,0.0412
3110.00,0.0409
3109.00,0.0406
3108.00,0.0403
3107.00,0.0400
3106.00,0.0397
3105.00,0.0394
3104.00,0.0392
3103.00,0.0389
3102.00,0.0386
3101.00,0.0384
3100.00,0.0381
3099.00,0.0378
3098.00,0.0375
3097.00,0.0372
3096.00,0.0369
3095.00,0.0367
3094.00,0.0364
3093.00,0.0361
3092.00,0.0359
3091.00,0.0356
3090.00,0.0353
3089.00,0.0351
3088.00,0.0348
3087.00,0.0345
3086.00,0.0343
3085.00,0.0340
3084.00,0.0337
3083.00,0.0335
3082.00,0.0333
3081.00,0.0330
3080.00,0.0328
3079.00,0.0326
3078.00,0.0323
3077.00,0.0320
3076.00,0.0318
3075.00,0.0315
3074.00,0.0313
3073.00,0.0311
3072.00,0.0308
3071.00,0.0306
3070.00,0.0304
3069.00,0.0301
3068.00,0.0299
3067.00,0.0297
3066.00,0.0295
3065.00,0.0293
3064.00,0.0290
3063.00,0.0288
3062.00,0.0286
3061.00,0.0284
3060.00,0.0281
3059.00,0.0279
3058.00,0.0277
3057.00,0.0275
3056.00,0.0273
3055.00,0.0271
3054.00,0.0270
3053.00,0.0268
3052.00,0.0266
3051.00,0.0264
3050.00,0.0261
3049.00,0.0259
3048.00,0.0257
3047.00,0.0256
3046.00,0.0254
3045.00,0.0253
3044.00,0.0251
3043.00,0.0249
3042.00,0.0247
3041.00,0.0246
3040.00,0.0244
3039.00,0.0242
3038.00,0.0240
3037.00,0.0238
3036.00,0.0237
3035.00,0.0235
3034.00,0.0233
3033.00,0.0232
3032.00,0.0230
3031.00,0.0229
3030.00,0.0227
3029.00,0.0225
3028.00,0.0224
3027.00,0.0222
3026.00,0.0221
3025.00,0.0220
3024.00,0.0218
3023.00,0.0217
3022.00,0.0215
3021.00,0.0214
3020.00,0.0213
3019.00,0.0212
3018.00,0.0210
3017.00,0.0209
3016.00,0.0208
3015.00,0.0206
3014.00,0.0205
3013.00,0.0203
3012.00,0.0201
3011.00,0.0200
3010.00,0.0198
3009.00,0.0197
3008.00,0.0196
3007.00,0.0194
3006.00,0.0193
3005.00,0.0191
3004.00,0.0190
3003.00,0.0188
3002.00,0.0187
3001.00,0.0185
3000.00,0.0184
2999.00,0.0182
2998.00,0.0181
2997.00,0.0180
2996.00,0.0179
2995.00,0.0177
2994.00,0.0176
2993.00,0.0175
2992.00,0.0174
2991.00,0.0173
2990.00,0.0172
2989.00,0.0171
2988.00,0.0169
2987.00,0.0168
2986.00,0.0167
2985.00,0.0165
2984.00,0.0163
2983.00,0.0161
2982.00,0.0159
2981.00,0.0158
2980.00,0.0157
2979.00,0.0157
2978.00,0.0158
2977.00,0.0158
2976.00,0.0159
2975.00,0.0160
2974.00,0.0161
2973.00,0.0161
2972.00,0.0160
2971.00,0.0159
2970.00,0.0158
2969.00,0.0158
2968.00,0.0157
2967.00,0.0157
2966.00,0.0157
2965.00,0.0157
2964.00,0.0158
2963.00,0.0158
2962.00,0.0159
2961.00,0.0160
2960.00,0.0161
2959.00,0.0163
2958.00,0.0165
2957.00,0.0168
2956.00,0.0173
2955.00,0.0180
2954.00,0.0188
2953.00,0.0200
2952.00,0.0214
2951.00,0.0233
2950.00,0.0254
2949.00,0.0278
2948.00,0.0303
2947.00,0.0327
2946.00,0.0347
2945.00,0.0360
2944.00,0.0364
2943.00,0.0360
2942.00,0.0348
2941.00,0.0332
2940.00,0.0314
2939.00,0.0297
2938.00,0.0280
2937.00,0.0265
2936.00,0.0251
2935.00,0.0239
2934.00,0.0227
2933.00,0.0217
2932.00,0.0209
2931.00,0.0202
2930.00,0.0197
2929.00,0.0192
2928.00,0.0189
2927.00,0.0187
2926.00,0.0187
2925.00,0.0187
2924.00,0.0189
2923.00,0.0192
2922.00,0.0197
2921.00,0.0204
2920.00,0.0214
2919.00,0.0227
2918.00,0.0243
2917.00,0.0260
2916.00,0.0278
2915.00,0.0292
2914.00,0.0301
2913.00,0.0303
2912.00,0.0297
2911.00,0.0287
2910.00,0.0275
2909.00,0.0262
2908.00,0.0251
2907.00,0.0243
2906.00,0.0236
2905.00,0.0232
2904.00,0.0229
2903.00,0.0227
2902.00,0.0225
2901.00,0.0225
2900.00,0.0225
2899.00,0.0227
2898.00,0.0232
2897.00,0.0239
2896.00,0.0248
2895.00,0.0260
2894.00,0.0271
2893.00,0.0281
2892.00,0.0287
2891.00,0.0288
2890.00,0.0284
2889.00,0.0278
2888.00,0.0270
2887.00,0.0262
2886.00,0.0256
2885.00,0.0252
2884.00,0.0250
2883.00,0.0250
2882.00,0.0251
2881.00,0.0252
2880.00,0.0254
2879.00,0.0255
2878.00,0.0255
2877.00,0.0255
2876.00,0.0254
2875.00,0.0252
2874.00,0.0249
2873.00,0.0246
2872.00,0.0243
2871.00,0.0240
2870.00,0.0237
2869.00,0.0234
2868.00,0.0231
2867.00,0.0229
2866.00,0.0226
2865.00,0.0224
2864.00,0.0222
2863.00,0.0221
2862.00,0.0219
2861.00,0.0217
2860.00,0.0216
2859.00,0.0215
2858.00,0.0214
2857.00,0.0214
2856.00,0.0213
2855.00,0.0213
2854.00,0.0213
2853.00,0.0214
2852.00,0.0214
2851.00,0.0214
2850.00,0.0215
2849.00,0.0216
2848.00,0.0216
2847.00,0.0217
2846.00,0.0217
2845.00,0.0217
2844.00,0.0217
2843.00,0.0216
2842.00,0.0216
2841.00,0.0215
2840.00,0.0214
2839.00,0.0213
2838.00,0.0212
2837.00,0.0210
2836.00,0.0209
2835.00,0.0208
2834.00,0.0206
2833.00,0.0205
2832.00,0.0203
2831.00,0.0202
2830.00,0.0200
2829.00,0.0199
2828.00,0.0198
2827.00,0.0197
2826.00,0.0196
2825.00,0.0195
2824.00,0.0194
2823.00,0.0193
2822.00,0.0192
2821.00,0.0192
2820.00,0.0191
2819.00,0.0190
2818.00,0.0190
2817.00,0.0189
2816.00,0.0189
2815.00,0.0189
2814.00,0.0189
2813.00,0.0189
2812.00,0.0189
2811.00,0.0189
2810.00,0.0189
2809.00,0.0189
2808.00,0.0189
2807.00,0.0190
2806.00,0.0190
2805.00,0.0190
2804.00,0.0190
2803.00,0.0191
2802.00,0.0191
2801.00,0.0191
2800.00,0.0191
2799.00,0.0191
2798.00,0.0192
2797.00,0.0192
2796.00,0.0192
2795.00,0.0192
2794.00,0.0192
2793.00,0.0192
2792.00,0.0192
2791.00,0.0191
2790.00,0.0191
2789.00,0.0190
2788.00,0.0190
2787.00,0.0189
2786.00,0.0189
2785.00,0.0188
2784.00,0.0188
2783.00,0.0187
2782.00,0.0187
2781.00,0.0186
2780.00,0.0185
2779.00,0.0185
2778.00,0.0184
2777.00,0.0184
2776.00,0.0183
2775.00,0.0183
2774.00,0.0182
2773.00,0.0182
2772.00,0.0181
2771.00,0.0181
2770.00,0.0180
2769.00,0.0180
2768.00,0.0179
2767.00,0.0178
2766.00,0.0178
2765.00,0.0178
2764.00,0.0177
2763.00,0.0176
2762.00,0.0176
2761.00,0.0175
2760.00,0.0174
2759.00,0.0174
2758.00,0.0173
2757.00,0.0173
2756.00,0.0172
2755.00,0.0171
2754.00,0.0170
2753.00,0.0169
2752.00,0.0168
2751.00,0.0167
2750.00,0.0167
2749.00,0.0166
2748.00,0.0165
2747.00,0.0164
2746.00,0.0164
2745.00,0.0163
2744.00,0.0163
2743.00,0.0162
2742.00,0.0162
2741.00,0.0161
2740.00,0.0160
2739.00,0.0160
2738.00,0.0159
2737.00,0.0159
2736.00,0.0159
2735.00,0.0159
2734.00,0.0158
2733.00,0.0158
2732.00,0.0158
2731.00,0.0158
2730.00,0.0158
2729.00,0.0158
2728.00,0.0158
2727.00,0.0158
2726.00,0.0158
2725.00,0.0158
2724.00,0.0159
2723.00,0.0159
2722.00,0.0159
2721.00,0.0159
2720.00,0.0159
2719.00,0.0158
2718.00,0.0158
2717.00,0.0158
2716.00,0.0158
2715.00,0.0158
2714.00,0.0157
2713.00,0.0157
2712.00,0.0158
2711.00,0.0158
2710.00,0.0158
2709.00,0.0159
2708.00,0.0159
2707.00,0.0160
2706.00,0.0160
2705.00,0.0160
2704.00,0.0160
2703.00,0.0160
2702.00,0.0160
2701.00,0.0160
2700.00,0.0161
2699.00,0.0161
2698.00,0.0161
2697.00,0.0161
2696.00,0.0161
2695.00,0.0161
2694.00,0.0161
2693.00,0.0161
2692.00,0.0161
2691.00,0.0161
2690.00,0.0160
2689.00,0.0160
2688.00,0.0160
2687.00,0.0159
2686.00,0.0159
2685.00,0.0159
2684.00,0.0158
2683.00,0.0158
2682.00,0.0157
2681.00,0.0157
2680.00,0.0157
2679.00,0.0156
2678.00,0.0156
2677.00,0.0156
2676.00,0.0156
2675.00,0.0155
2674.00,0.0155
2673.00,0.0155
2672.00,0.0155
2671.00,0.0154
2670.00,0.0154
2669.00,0.0154
2668.00,0.0154
2667.00,0.0154
2666.00,0.0154
2665.00,0.0154
2664.00,0.0154
2663.00,0.0154
2662.00,0.0154
2661.00,0.0154
2660.00,0.0153
2659.00,0.0153
2658.00,0.0152
2657.00,0.0152
2656.00,0.0151
2655.00,0.0151
2654.00,0.0150
2653.00,0.0149
2652.00,0.0149
2651.00,0.0148
2650.00,0.0148
2649.00,0.0147
2648.00,0.0146
2647.00,0.0146
2646.00,0.0145
2645.00,0.0145
2644.00,0.0144
2643.00,0.0144
2642.00,0.0143
2641.00,0.0142
2640.00,0.0142
2639.00,0.0141
2638.00,0.0141
2637.00,0.0140
2636.00,0.0140
2635.00,0.0139
2634.00,0.0138
2633.00,0.0138
2632.00,0.0137
2631.00,0.0137
2630.00,0.0136
2629.00,0.0136
2628.00,0.0135
2627.00,0.0135
2626.00,0.0134
2625.00,0.0134
2624.00,0.0133
2623.00,0.0133
2622.00,0.0132
2621.00,0.0132
2620.00,0.0131
2619.00,0.0131
2618.00,0.0130
2617.00,0.0130
2616.00,0.0129
2615.00,0.0129
2614.00,0.0128
2613.00,0.0128
2612.00,0.0128
2611.00,0.0128
2610.00,0.0128
2609.00,0.0128
2608.00,0.0128
2607.00,0.0128
2606.00,0.0128
2605.00,0.0128
2604.00,0.0128
2603.00,0.0127
2602.00,0.0127
2601.00,0.0127
2600.00,0.0127
2599.00,0.0126
2598.00,0.0126
2597.00,0.0125
2596.00,0.0124
2595.00,0.0124
2594.00,0.0123
2593.00,0.0123
2592.00,0.0122
2591.00,0.0122
2590.00,0.0121
2589.00,0.0121
2588.00,0.0120
2587.00,0.0120
2586.00,0.0120
2585.00,0.0119
2584.00,0.0119
2583.00,0.0118
2582.00,0.0118
2581.00,0.0118
2580.00,0.0117
2579.00,0.0117
2578.00,0.0117
2577.00,0.0116
2576.00,0.0116
2575.00,0.0116
2574.00,0.0116
2573.00,0.0116
2572.00,0.0116
2571.00,0.0116
2570.00,0.0116
2569.00,0.0116
2568.00,0.0116
2567.00,0.0116
2566.00,0.0116
2565.00,0.0116
2564.00,0.0116
2563.00,0.0116
2562.00,0.0116
2561.00,0.0115
2560.00,0.0115
2559.00,0.0116
2558.00,0.0116
2557.00,0.0116
2556.00,0.0116
2555.00,0.0115
2554.00,0.0115
2553.00,0.0115
2552.00,0.0114
2551.00,0.0115
2550.00,0.0115
2549.00,0.0115
2548.00,0.0116
2547.00,0.0116
2546.00,0.0116
2545.00,0.0117
2544.00,0.0117
2543.00,0.0117
2542.00,0.0117
2541.00,0.0117
2540.00,0.0116
2539.00,0.0116
2538.00,0.0116
2537.00,0.0116
2536.00,0.0116
2535.00,0.0116
2534.00,0.0115
2533.00,0.0115
2532.00,0.0115
2531.00,0.0114
2530.00,0.0113
2529.00,0.0113
2528.00,0.0112
2527.00,0.0112
2526.00,0.0113
2525.00,0.0113
2524.00,0.0113
2523.00,0.0113
2522.00,0.0112
2521.00,0.0112
2520.00,0.0111
2519.00,0.0111
2518.00,0.0111
2517.00,0.0111
2516.00,0.0111
2515.00,0.0111
2514.00,0.0112
2513.00,0.0112
2512.00,0.0112
2511.00,0.0112
2510.00,0.0111
2509.00,0.0111
2508.00,0.0111
2507.00,0.0111
2506.00,0.0111
2505.00,0.0111
2504.00,0.0111
2503.00,0.0111
2502.00,0.0111
2501.00,0.0110
2500.00,0.0110
2499.00,0.0110
2498.00,0.0110
2497.00,0.0110
2496.00,0.0110
2495.00,0.0110
2494.00,0.0110
2493.00,0.0109
2492.00,0.0109
2491.00,0.0109
2490.00,0.0108
2489.00,0.0108
2488.00,0.0108
2487.00,0.0108
2486.00,0.0108
2485.00,0.0108
2484.00,0.0107
2483.00,0.0106
2482.00,0.0106
2481.00,0.0105
2480.00,0.0105
2479.00,0.0105
2478.00,0.0105
2477.00,0.0105
2476.00,0.0104
2475.00,0.0104
2474.00,0.0104
2473.00,0.0103
2472.00,0.0103
2471.00,0.0103
2470.00,0.0102
2469.00,0.0102
2468.00,0.0101
2467.00,0.0101
2466.00,0.0101
2465.00,0.0101
2464.00,0.0101
2463.00,0.0101
2462.00,0.0101
2461.00,0.0101
2460.00,0.0101
2459.00,0.0101
2458.00,0.0101
2457.00,0.0100
2456.00,0.0100
2455.00,0.0100
2454.00,0.0099
2453.00,0.0099
2452.00,0.0098
2451.00,0.0098
2450.00,0.0098
2449.00,0.0098
2448.00,0.0097
2447.00,0.0097
2446.00,0.0096
2445.00,0.0096
2444.00,0.0095
2443.00,0.0095
2442.00,0.0095
2441.00,0.0095
2440.00,0.0095
2439.00,0.0094
2438.00,0.0094
2437.00,0.0094
2436.00,0.0094
2435.00,0.0093
2434.00,0.0093
2433.00,0.0093
2432.00,0.0093
2431.00,0.0093
2430.00,0.0093
2429.00,0.0093
2428.00,0.0093
2427.00,0.0092
2426.00,0.0092
2425.00,0.0092
2424.00,0.0092
2423.00,0.0092
2422.00,0.0092
2421.00,0.0092
2420.00,0.0091
2419.00,0.0091
2418.00,0.0090
2417.00,0.0089
2416.00,0.0088
2415.00,0.0088
2414.00,0.0088
2413.00,0.0088
2412.00,0.0089
2411.00,0.0089
2410.00,0.0088
2409.00,0.0088
2408.00,0.0087
2407.00,0.0087
2406.00,0.0086
2405.00,0.0086
2404.00,0.0086
2403.00,0.0086
2402.00,0.0086
2401.00,0.0086
2400.00,0.0086
2399.00,0.0086
2398.00,0.0085
2397.00,0.0085
2396.00,0.0085
2395.00,0.0085
2394.00,0.0084
2393.00,0.0084
2392.00,0.0084
2391.00,0.0084
2390.00,0.0084
2389.00,0.0083
2388.00,0.0083
2387.00,0.0082
2386.00,0.0082
2385.00,0.0081
2384.00,0.0080
2383.00,0.0080
2382.00,0.0079
2381.00,0.0078
2380.00,0.0078
2379.00,0.0078
2378.00,0.0078
2377.00,0.0079
2376.00,0.0079
2375.00,0.0079
2374.00,0.0079
2373.00,0.0078
2372.00,0.0078
2371.00,0.0078
2370.00,0.0077
2369.00,0.0077
2368.00,0.0076
2367.00,0.0076
2366.00,0.0076
2365.00,0.0076
2364.00,0.0077
2363.00,0.0077
2362.00,0.0078
2361.00,0.0078
2360.00,0.0079
2359.00,0.0079
2358.00,0.0079
2357.00,0.0079
2356.00,0.0079
2355.00,0.0078
2354.00,0.0077
2353.00,0.0077
2352.00,0.0077
2351.00,0.0078
2350.00,0.0078
2349.00,0.0077
2348.00,0.0077
2347.00,0.0077
2346.00,0.0078
2345.00,0.0079
2344.00,0.0079
2343.00,0.0080
2342.00,0.0080
2341.00,0.0080
2340.00,0.0080
2339.00,0.0080
2338.00,0.0080
2337.00,0.0080
2336.00,0.0080
2335.00,0.0080
2334.00,0.0079
2333.00,0.0079
2332.00,0.0079
2331.00,0.0079
2330.00,0.0080
2329.00,0.0082
2328.00,0.0085
2327.00,0.0089
2326.00,0.0092
2325.00,0.0093
2324.00,0.0091
2323.00,0.0089
2322.00,0.0088
2321.00,0.0086
2320.00,0.0086
2319.00,0.0085
2318.00,0.0083
2317.00,0.0082
2316.00,0.0081
2315.00,0.0080
2314.00,0.0080
2313.00,0.0080
2312.00,0.0080
2311.00,0.0080
2310.00,0.0080
2309.00,0.0080
2308.00,0.0080
2307.00,0.0080
2306.00,0.0081
2305.00,0.0081
2304.00,0.0081
2303.00,0.0081
2302.00,0.0081
2301.00,0.0081
2300.00,0.0081
2299.00,0.0081
2298.00,0.0082
2297.00,0.0083
2296.00,0.0083
2295.00,0.0084
2294.00,0.0084
2293.00,0.0084
2292.00,0.0085
2291.00,0.0086
2290.00,0.0086
2289.00,0.0087
2288.00,0.0088
2287.00,0.0088
2286.00,0.0087
2285.00,0.0087
2284.00,0.0086
2283.00,0.0085
2282.00,0.0084
2281.00,0.0084
2280.00,0.0083
2279.00,0.0083
2278.00,0.0083
2277.00,0.0083
2276.00,0.0082
2275.00,0.0082
2274.00,0.0081
2273.00,0.0081
2272.00,0.0081
2271.00,0.0081
2270.00,0.0080
2269.00,0.0080
2268.00,0.0079
2267.00,0.0079
2266.00,0.0079
2265.00,0.0080
2264.00,0.0080
2263.00,0.0080
2262.00,0.0080
2261.00,0.0080
2260.00,0.0081
2259.00,0.0080
2258.00,0.0079
2257.00,0.0077
2256.00,0.0076
2255.00,0.0075
2254.00,0.0075
2253.00,0.0076
2252.00,0.0076
2251.00,0.0077
2250.00,0.0077
2249.00,0.0078
2248.00,0.0078
2247.00,0.0078
2246.00,0.0078
2245.00,0.0078
2244.00,0.0078
2243.00,0.0078
2242.00,0.0078
2241.00,0.0078
2240.00,0.0076
2239.00,0.0076
2238.00,0.0076
2237.00,0.0076
2236.00,0.0076
2235.00,0.0076
2234.00,0.0075
2233.00,0.0074
2232.00,0.0073
2231.00,0.0073
2230.00,0.0073
2229.00,0.0073
2228.00,0.0072
2227.00,0.0071
2226.00,0.0071
2225.00,0.0072
2224.00,0.0073
2223.00,0.0074
2222.00,0.0074
2221.00,0.0074
2220.00,0.0073
2219.00,0.0073
2218.00,0.0072
2217.00,0.0073
2216.00,0.0073
2215.00,0.0074
2214.00,0.0074
2213.00,0.0075
2212.00,0.0075
2211.00,0.0075
2210.00,0.0075
2209.00,0.0075
2208.00,0.0074
2207.00,0.0073
2206.00,0.0072
2205.00,0.0072
2204.00,0.0072
2203.00,0.0072
2202.00,0.0072
2201.00,0.0073
2200.00,0.0074
2199.00,0.0075
2198.00,0.0075
2197.00,0.0075
2196.00,0.0075
2195.00,0.0075
2194.00,0.0075
2193.00,0.0076
2192.00,0.0077
2191.00,0.0078
2190.00,0.0079
2189.00,0.0080
2188.00,0.0080
2187.00,0.0080
2186.00,0.0080
2185.00,0.0078
2184.00,0.0076
2183.00,0.0073
2182.00,0.0071
2181.00,0.0072
2180.00,0.0073
2179.00,0.0074
2178.00,0.0073
2177.00,0.0072
2176.00,0.0071
2175.00,0.0072
2174.00,0.0074
2173.00,0.0077
2172.00,0.0079
2171.00,0.0081
2170.00,0.0083
2169.00,0.0084
2168.00,0.0085
2167.00,0.0086
2166.00,0.0087
2165.00,0.0088
2164.00,0.0088
2163.00,0.0085
2162.00,0.0078
2161.00,0.0067
2160.00,0.0054
2159.00,0.0045
2158.00,0.0042
2157.00,0.0043
2156.00,0.0046
2155.00,0.0049
2154.00,0.0052
2153.00,0.0056
2152.00,0.0058
2151.00,0.0060
2150.00,0.0060
2149.00,0.0060
2148.00,0.0059
2147.00,0.0057
2146.00,0.0056
2145.00,0.0055
2144.00,0.0056
2143.00,0.0056
2142.00,0.0057
2141.00,0.0057
2140.00,0.0057
2139.00,0.0057
2138.00,0.0056
2137.00,0.0055
2136.00,0.0053
2135.00,0.0051
2134.00,0.0051
2133.00,0.0052
2132.00,0.0055
2131.00,0.0058
2130.00,0.0060
2129.00,0.0062
2128.00,0.0063
2127.00,0.0064
2126.00,0.0065
2125.00,0.0065
2124.00,0.0066
2123.00,0.0067
2122.00,0.0068
2121.00,0.0069
2120.00,0.0069
2119.00,0.0070
2118.00,0.0070
2117.00,0.0070
2116.00,0.0071
2115.00,0.0071
2114.00,0.0072
2113.00,0.0072
2112.00,0.0072
2111.00,0.0071
2110.00,0.0070
2109.00,0.0069
2108.00,0.0069
2107.00,0.0069
2106.00,0.0069
2105.00,0.0069
2104.00,0.0069
2103.00,0.0069
2102.00,0.0069
2101.00,0.0069
2100.00,0.0069
2099.00,0.0068
2098.00,0.0066
2097.00,0.0064
2096.00,0.0061
2095.00,0.0061
2094.00,0.0061
2093.00,0.0063
2092.00,0.0065
2091.00,0.0066
2090.00,0.0066
2089.00,0.0066
2088.00,0.0066
2087.00,0.0066
2086.00,0.0067
2085.00,0.0068
2084.00,0.0068
2083.00,0.0069
2082.00,0.0070
2081.00,0.0071
2080.00,0.0072
2079.00,0.0071
2078.00,0.0071
2077.00,0.0070
2076.00,0.0070
2075.00,0.0070
2074.00,0.0070
2073.00,0.0070
2072.00,0.0070
2071.00,0.0069
2070.00,0.0068
2069.00,0.0068
2068.00,0.0068
2067.00,0.0067
2066.00,0.0067
2065.00,0.0066
2064.00,0.0066
2063.00,0.0066
2062.00,0.0065
2061.00,0.0065
2060.00,0.0066
2059.00,0.0066
2058.00,0.0067
2057.00,0.0067
2056.00,0.0066
2055.00,0.0066
2054.00,0.0068
2053.00,0.0072
2052.00,0.0075
2051.00,0.0076
2050.00,0.0072
2049.00,0.0068
2048.00,0.0064
2047.00,0.0062
2046.00,0.0062
2045.00,0.0062
2044.00,0.0061
2043.00,0.0060
2042.00,0.0058
2041.00,0.0056
2040.00,0.0056
2039.00,0.0057
2038.00,0.0057
2037.00,0.0056
2036.00,0.0053
2035.00,0.0049
2034.00,0.0045
2033.00,0.0043
2032.00,0.0042
2031.00,0.0042
2030.00,0.0042
2029.00,0.0043
2028.00,0.0043
2027.00,0.0042
2026.00,0.0042
2025.00,0.0043
2024.00,0.0044
2023.00,0.0046
2022.00,0.0047
2021.00,0.0047
2020.00,0.0046
2019.00,0.0045
2018.00,0.0043
2017.00,0.0043
2016.00,0.0044
2015.00,0.0046
2014.00,0.0048
2013.00,0.0049
2012.00,0.0049
2011.00,0.0048
2010.00,0.0047
2009.00,0.0045
2008.00,0.0044
2007.00,0.0042
2006.00,0.0041
2005.00,0.0040
2004.00,0.0040
2003.00,0.0041
2002.00,0.0043
2001.00,0.0044
2000.00,0.0045
1999.00,0.0046
1998.00,0.0046
1997.00,0.0046
1996.00,0.0047
1995.00,0.0048
1994.00,0.0047
1993.00,0.0047
1992.00,0.0046
1991.00,0.0044
1990.00,0.0044
1989.00,0.0045
1988.00,0.0046
1987.00,0.0048
1986.00,0.0050
1985.00,0.0052
1984.00,0.0054
1983.00,0.0055
1982.00,0.0056
1981.00,0.0055
1980.00,0.0054
1979.00,0.0051
1978.00,0.0047
1977.00,0.0044
1976.00,0.0041
1975.00,0.0039
1974.00,0.0038
1973.00,0.0038
1972.00,0.0038
1971.00,0.0038
1970.00,0.0038
1969.00,0.0039
1968.00,0.0041
1967.00,0.0044
1966.00,0.0046
1965.00,0.0047
1964.00,0.0047
1963.00,0.0048
1962.00,0.0048
1961.00,0.0047
1960.00,0.0046
1959.00,0.0045
1958.00,0.0045
1957.00,0.0046
1956.00,0.0047
1955.00,0.0048
1954.00,0.0049
1953.00,0.0049
1952.00,0.0050
1951.00,0.0051
1950.00,0.0051
1949.00,0.0051
1948.00,0.0052
1947.00,0.0052
1946.00,0.0053
1945.00,0.0054
1944.00,0.0055
1943.00,0.0056
1942.00,0.0055
1941.00,0.0055
1940.00,0.0055
1939.00,0.0055
1938.00,0.0055
1937.00,0.0055
1936.00,0.0055
1935.00,0.0055
1934.00,0.0055
1933.00,0.0056
1932.00,0.0056
1931.00,0.0056
1930.00,0.0055
1929.00,0.0055
1928.00,0.0055
1927.00,0.0056
1926.00,0.0056
1925.00,0.0056
1924.00,0.0057
1923.00,0.0057
1922.00,0.0058
1921.00,0.0059
1920.00,0.0059
1919.00,0.0059
1918.00,0.0060
1917.00,0.0060
1916.00,0.0060
1915.00,0.0060
1914.00,0.0060
1913.00,0.0060
1912.00,0.0060
1911.00,0.0060
1910.00,0.0060
1909.00,0.0060
1908.00,0.0061
1907.00,0.0061
1906.00,0.0061
1905.00,0.0061
1904.00,0.0062
1903.00,0.0062
1902.00,0.0062
1901.00,0.0062
1900.00,0.0062
1899.00,0.0061
1898.00,0.0061
1897.00,0.0061
1896.00,0.0061
1895.00,0.0062
1894.00,0.0062
1893.00,0.0062
1892.00,0.0063
1891.00,0.0063
1890.00,0.0063
1889.00,0.0064
1888.00,0.0064
1887.00,0.0063
1886.00,0.0063
1885.00,0.0063
1884.00,0.0063
1883.00,0.0064
1882.00,0.0064
1881.00,0.0064
1880.00,0.0063
1879.00,0.0063
1878.00,0.0063
1877.00,0.0063
1876.00,0.0064
1875.00,0.0064
1874.00,0.0064
1873.00,0.0064
1872.00,0.0064
1871.00,0.0063
1870.00,0.0062
1869.00,0.0062
1868.00,0.0062
1867.00,0.0063
1866.00,0.0063
1865.00,0.0063
1864.00,0.0063
1863.00,0.0063
1862.00,0.0063
1861.00,0.0064
1860.00,0.0064
1859.00,0.0064
1858.00,0.0063
1857.00,0.0063
1856.00,0.0063
1855.00,0.0063
1854.00,0.0063
1853.00,0.0063
1852.00,0.0063
1851.00,0.0063
1850.00,0.0063
1849.00,0.0063
1848.00,0.0064
1847.00,0.0064
1846.00,0.0064
1845.00,0.0065
1844.00,0.0065
1843.00,0.0065
1842.00,0.0065
1841.00,0.0065
1840.00,0.0065
1839.00,0.0064
1838.00,0.0064
1837.00,0.0063
1836.00,0.0063
1835.00,0.0063
1834.00,0.0062
1833.00,0.0062
1832.00,0.0062
1831.00,0.0062
1830.00,0.0063
1829.00,0.0063
1828.00,0.0063
1827.00,0.0063
1826.00,0.0062
1825.00,0.0062
1824.00,0.0063
1823.00,0.0063
1822.00,0.0063
1821.00,0.0063
1820.00,0.0062
1819.00,0.0061
1818.00,0.0060
1817.00,0.0060
1816.00,0.0060
1815.00,0.0061
1814.00,0.0061
1813.00,0.0062
1812.00,0.0062
1811.00,0.0062
1810.00,0.0063
1809.00,0.0063
1808.00,0.0063
1807.00,0.0063
1806.00,0.0063
1805.00,0.0064
1804.00,0.0064
1803.00,0.0064
1802.00,0.0064
1801.00,0.0064
1800.00,0.0064
1799.00,0.0064
1798.00,0.0064
1797.00,0.0064
1796.00,0.0064
1795.00,0.0064
1794.00,0.0064
1793.00,0.0065
1792.00,0.0065
1791.00,0.0066
1790.00,0.0066
1789.00,0.0066
1788.00,0.0065
1787.00,0.0065
1786.00,0.0065
1785.00,0.0065
1784.00,0.0065
1783.00,0.0066
1782.00,0.0066
1781.00,0.0066
1780.00,0.0065
1779.00,0.0065
1778.00,0.0065
1777.00,0.0065
1776.00,0.0065
1775.00,0.0066
1774.00,0.0066
1773.00,0.0066
1772.00,0.0066
1771.00,0.0066
1770.00,0.0066
1769.00,0.0066
1768.00,0.0066
1767.00,0.0066
1766.00,0.0066
1765.00,0.0066
1764.00,0.0066
1763.00,0.0066
1762.00,0.0066
1761.00,0.0065
1760.00,0.0065
1759.00,0.0065
1758.00,0.0065
1757.00,0.0065
1756.00,0.0065
1755.00,0.0065
1754.00,0.0065
1753.00,0.0064
1752.00,0.0064
1751.00,0.0064
1750.00,0.0064
1749.00,0.0064
1748.00,0.0063
1747.00,0.0063
1746.00,0.0062
1745.00,0.0062
1744.00,0.0062
1743.00,0.0062
1742.00,0.0062
1741.00,0.0062
1740.00,0.0061
1739.00,0.0061
1738.00,0.0060
1737.00,0.0060
1736.00,0.0060
1735.00,0.0060
1734.00,0.0060
1733.00,0.0060
1732.00,0.0060
1731.00,0.0060
1730.00,0.0059
1729.00,0.0059
1728.00,0.0059
1727.00,0.0059
1726.00,0.0059
1725.00,0.0059
1724.00,0.0059
1723.00,0.0059
1722.00,0.0059
1721.00,0.0059
1720.00,0.0058
1719.00,0.0058
1718.00,0.0058
1717.00,0.0058
1716.00,0.0058
1715.00,0.0058
1714.00,0.0058
1713.00,0.0058
1712.00,0.0058
1711.00,0.0058
1710.00,0.0058
1709.00,0.0058
1708.00,0.0058
1707.00,0.0058
1706.00,0.0059
1705.00,0.0059
1704.00,0.0060
1703.00,0.0060
1702.00,0.0061
1701.00,0.0062
1700.00,0.0062
1699.00,0.0063
1698.00,0.0063
1697.00,0.0063
1696.00,0.0064
1695.00,0.0064
1694.00,0.0064
1693.00,0.0064
1692.00,0.0064
1691.00,0.0064
1690.00,0.0065
1689.00,0.0065
1688.00,0.0066
1687.00,0.0066
1686.00,0.0066
1685.00,0.0066
1684.00,0.0067
1683.00,0.0067
1682.00,0.0067
1681.00,0.0068
1680.00,0.0068
1679.00,0.0068
1678.00,0.0069
1677.00,0.0069
1676.00,0.0069
1675.00,0.0069
1674.00,0.0069
1673.00,0.0070
1672.00,0.0070
1671.00,0.0070
1670.00,0.0070
1669.00,0.0070
1668.00,0.0070
1667.00,0.0070
1666.00,0.0070
1665.00,0.0071
1664.00,0.0071
1663.00,0.0071
1662.00,0.0071
1661.00,0.0071
1660.00,0.0071
1659.00,0.0070
1658.00,0.0070
1657.00,0.0070
1656.00,0.0070
1655.00,0.0071
1654.00,0.0071
1653.00,0.0071
1652.00,0.0071
1651.00,0.0071
1650.00,0.0071
1649.00,0.0070
1648.00,0.0070
1647.00,0.0070
1646.00,0.0070
1645.00,0.0070
1644.00,0.0070
1643.00,0.0069
1642.00,0.0069
1641.00,0.0069
1640.00,0.0069
1639.00,0.0069
1638.00,0.0069
1637.00,0.0069
1636.00,0.0069
1635.00,0.0069
1634.00,0.0069
1633.00,0.0069
1632.00,0.0069
1631.00,0.0068
1630.00,0.0069
1629.00,0.0069
1628.00,0.0069
1627.00,0.0069
1626.00,0.0069
1625.00,0.0069
1624.00,0.0070
1623.00,0.0070
1622.00,0.0070
1621.00,0.0070
1620.00,0.0070
1619.00,0.0070
1618.00,0.0070
1617.00,0.0070
1616.00,0.0070
1615.00,0.0070
1614.00,0.0070
1613.00,0.0070
1612.00,0.0070
1611.00,0.0070
1610.00,0.0071
1609.00,0.0071
1608.00,0.0071
1607.00,0.0071
1606.00,0.0072
1605.00,0.0072
1604.00,0.0072
1603.00,0.0072
1602.00,0.0072
1601.00,0.0073
1600.00,0.0073
1599.00,0.0073
1598.00,0.0073
1597.00,0.0074
1596.00,0.0074
1595.00,0.0074
1594.00,0.0074
1593.00,0.0074
1592.00,0.0075
1591.00,0.0075
1590.00,0.0075
1589.00,0.0075
1588.00,0.0075
1587.00,0.0075
1586.00,0.0075
1585.00,0.0075
1584.00,0.0076
1583.00,0.0076
1582.00,0.0076
1581.00,0.0076
1580.00,0.0076
1579.00,0.0076
1578.00,0.0076
1577.00,0.0076
1576.00,0.0077
1575.00,0.0077
1574.00,0.0077
1573.00,0.0078
1572.00,0.0078
1571.00,0.0078
1570.00,0.0078
1569.00,0.0079
1568.00,0.0079
1567.00,0.0079
1566.00,0.0079
1565.00,0.0080
1564.00,0.0080
1563.00,0.0080
1562.00,0.0079
1561.00,0.0080
1560.00,0.0079
1559.00,0.0079
1558.00,0.0079
1557.00,0.0080
1556.00,0.0080
1555.00,0.0081
1554.00,0.0081
1553.00,0.0081
1552.00,0.0081
1551.00,0.0082
1550.00,0.0082
1549.00,0.0082
1548.00,0.0082
1547.00,0.0083
1546.00,0.0083
1545.00,0.0083
1544.00,0.0084
1543.00,0.0084
1542.00,0.0084
1541.00,0.0084
1540.00,0.0085
1539.00,0.0085
1538.00,0.0085
1537.00,0.0086
1536.00,0.0086
1535.00,0.0086
1534.00,0.0087
1533.00,0.0087
1532.00,0.0088
1531.00,0.0088
1530.00,0.0089
1529.00,0.0089
1528.00,0.0089
1527.00,0.0090
1526.00,0.0090
1525.00,0.0090
1524.00,0.0091
1523.00,0.0092
1522.00,0.0092
1521.00,0.0093
1520.00,0.0093
1519.00,0.0094
1518.00,0.0094
1517.00,0.0094
1516.00,0.0095
1515.00,0.0095
1514.00,0.0096
1513.00,0.0097
1512.00,0.0098
1511.00,0.0099
1510.00,0.0099
1509.00,0.0100
1508.00,0.0101
1507.00,0.0102
1506.00,0.0103
1505.00,0.0104
1504.00,0.0106
1503.00,0.0106
1502.00,0.0107
1501.00,0.0108
1500.00,0.0109
1499.00,0.0111
1498.00,0.0112
1497.00,0.0113
1496.00,0.0115
1495.00,0.0117
1494.00,0.0118
1493.00,0.0120
1492.00,0.0122
1491.00,0.0124
1490.00,0.0127
1489.00,0.0129
1488.00,0.0132
1487.00,0.0135
1486.00,0.0137
1485.00,0.0140
1484.00,0.0144
1483.00,0.0147
1482.00,0.0151
1481.00,0.0156
1480.00,0.0161
1479.00,0.0166
1478.00,0.0171
1477.00,0.0177
1476.00,0.0184
1475.00,0.0192
1474.00,0.0200
1473.00,0.0211
1472.00,0.0222
1471.00,0.0234
1470.00,0.0246
1469.00,0.0258
1468.00,0.0271
1467.00,0.0287
1466.00,0.0305
1465.00,0.0328
1464.00,0.0353
1463.00,0.0378
1462.00,0.0400
1461.00,0.0419
1460.00,0.0432
1459.00,0.0439
1458.00,0.0437
1457.00,0.0428
1456.00,0.0418
1455.00,0.0410
1454.00,0.0404
1453.00,0.0400
1452.00,0.0399
1451.00,0.0399
1450.00,0.0401
1449.00,0.0405
1448.00,0.0411
1447.00,0.0416
1446.00,0.0422
1445.00,0.0426
1444.00,0.0429
1443.00,0.0430
1442.00,0.0429
1441.00,0.0426
1440.00,0.0422
1439.00,0.0417
1438.00,0.0412
1437.00,0.0408
1436.00,0.0404
1435.00,0.0402
1434.00,0.0400
1433.00,0.0399
1432.00,0.0399
1431.00,0.0400
1430.00,0.0401
1429.00,0.0402
1428.00,0.0401
1427.00,0.0399
1426.00,0.0396
1425.00,0.0392
1424.00,0.0388
1423.00,0.0383
1422.00,0.0377
1421.00,0.0372
1420.00,0.0367
1419.00,0.0362
1418.00,0.0358
1417.00,0.0354
1416.00,0.0352
1415.00,0.0350
1414.00,0.0349
1413.00,0.0348
1412.00,0.0348
1411.00,0.0347
1410.00,0.0347
1409.00,0.0346
1408.00,0.0344
1407.00,0.0341
1406.00,0.0338
1405.00,0.0333
1404.00,0.0327
1403.00,0.0321
1402.00,0.0314
1401.00,0.0307
1400.00,0.0300
1399.00,0.0292
1398.00,0.0286
1397.00,0.0279
1396.00,0.0274
1395.00,0.0269
1394.00,0.0265
1393.00,0.0262
1392.00,0.0262
1391.00,0.0265
1390.00,0.0271
1389.00,0.0281
1388.00,0.0297
1387.00,0.0318
1386.00,0.0341
1385.00,0.0365
1384.00,0.0388
1383.00,0.0407
1382.00,0.0421
1381.00,0.0428
1380.00,0.0430
1379.00,0.0430
1378.00,0.0428
1377.00,0.0426
1376.00,0.0427
1375.00,0.0430
1374.00,0.0436
1373.00,0.0442
1372.00,0.0445
1371.00,0.0441
1370.00,0.0430
1369.00,0.0414
1368.00,0.0396
1367.00,0.0379
1366.00,0.0365
1365.00,0.0354
1364.00,0.0346
1363.00,0.0339
1362.00,0.0333
1361.00,0.0326
1360.00,0.0320
1359.00,0.0314
1358.00,0.0310
1357.00,0.0308
1356.00,0.0309
1355.00,0.0313
1354.00,0.0319
1353.00,0.0328
1352.00,0.0339
1351.00,0.0351
1350.00,0.0363
1349.00,0.0373
1348.00,0.0381
1347.00,0.0387
1346.00,0.0393
1345.00,0.0402
1344.00,0.0415
1343.00,0.0434
1342.00,0.0455
1341.00,0.0474
1340.00,0.0485
1339.00,0.0486
1338.00,0.0478
1337.00,0.0463
1336.00,0.0447
1335.00,0.0432
1334.00,0.0421
1333.00,0.0415
1332.00,0.0414
1331.00,0.0414
1330.00,0.0410
1329.00,0.0398
1328.00,0.0378
1327.00,0.0352
1326.00,0.0325
1325.00,0.0301
1324.00,0.0281
1323.00,0.0265
1322.00,0.0252
1321.00,0.0242
1320.00,0.0234
1319.00,0.0227
1318.00,0.0221
1317.00,0.0217
1316.00,0.0213
1315.00,0.0209
1314.00,0.0206
1313.00,0.0204
1312.00,0.0202
1311.00,0.0200
1310.00,0.0199
1309.00,0.0199
1308.00,0.0200
1307.00,0.0202
1306.00,0.0205
1305.00,0.0210
1304.00,0.0216
1303.00,0.0223
1302.00,0.0233
1301.00,0.0243
1300.00,0.0255
1299.00,0.0266
1298.00,0.0275
1297.00,0.0281
1296.00,0.0282
1295.00,0.0280
1294.00,0.0275
1293.00,0.0268
1292.00,0.0261
1291.00,0.0254
1290.00,0.0250
1289.00,0.0248
1288.00,0.0248
1287.00,0.0249
1286.00,0.0252
1285.00,0.0256
1284.00,0.0260
1283.00,0.0262
1282.00,0.0263
1281.00,0.0263
1280.00,0.0262
1279.00,0.0259
1278.00,0.0256
1277.00,0.0253
1276.00,0.0250
1275.00,0.0248
1274.00,0.0247
1273.00,0.0246
1272.00,0.0246
1271.00,0.0244
1270.00,0.0242
1269.00,0.0238
1268.00,0.0234
1267.00,0.0229
1266.00,0.0224
1265.00,0.0219
1264.00,0.0213
1263.00,0.0208
1262.00,0.0202
1261.00,0.0198
1260.00,0.0193
1259.00,0.0189
1258.00,0.0185
1257.00,0.0182
1256.00,0.0179
1255.00,0.0176
1254.00,0.0175
1253.00,0.0173
1252.00,0.0171
1251.00,0.0170
1250.00,0.0168
1249.00,0.0166
1248.00,0.0164
1247.00,0.0163
1246.00,0.0161
1245.00,0.0160
1244.00,0.0159
1243.00,0.0158
1242.00,0.0158
1241.00,0.0158
1240.00,0.0159
1239.00,0.0160
1238.00,0.0162
1237.00,0.0166
1236.00,0.0171
1235.00,0.0178
1234.00,0.0186
1233.00,0.0197
1232.00,0.0210
1231.00,0.0228
1230.00,0.0251
1229.00,0.0281
1228.00,0.0315
1227.00,0.0352
1226.00,0.0386
1225.00,0.0412
1224.00,0.0423
1223.00,0.0418
1222.00,0.0399
1221.00,0.0370
1220.00,0.0338
1219.00,0.0307
1218.00,0.0278
1217.00,0.0255
1216.00,0.0237
1215.00,0.0224
1214.00,0.0215
1213.00,0.0211
1212.00,0.0211
1211.00,0.0215
1210.00,0.0222
1209.00,0.0234
1208.00,0.0251
1207.00,0.0274
1206.00,0.0300
1205.00,0.0326
1204.00,0.0345
1203.00,0.0352
1202.00,0.0346
1201.00,0.0330
1200.00,0.0308
1199.00,0.0285
1198.00,0.0264
1197.00,0.0247
1196.00,0.0232
1195.00,0.0220
1194.00,0.0210
1193.00,0.0202
1192.00,0.0195
1191.00,0.0190
1190.00,0.0185
1189.00,0.0181
1188.00,0.0177
1187.00,0.0174
1186.00,0.0172
1185.00,0.0170
1184.00,0.0168
1183.00,0.0166
1182.00,0.0165
1181.00,0.0164
1180.00,0.0163
1179.00,0.0163
1178.00,0.0163
1177.00,0.0163
1176.00,0.0164
1175.00,0.0166
1174.00,0.0168
1173.00,0.0171
1172.00,0.0174
1171.00,0.0179
1170.00,0.0184
1169.00,0.0191
1168.00,0.0198
1167.00,0.0206
1166.00,0.0216
1165.00,0.0228
1164.00,0.0241
1163.00,0.0259
1162.00,0.0280
1161.00,0.0306
1160.00,0.0338
1159.00,0.0375
1158.00,0.0418
1157.00,0.0467
1156.00,0.0521
1155.00,0.0578
1154.00,0.0638
1153.00,0.0699
1152.00,0.0759
1151.00,0.0816
1150.00,0.0867
1149.00,0.0909
1148.00,0.0940
1147.00,0.0956
1146.00,0.0958
1145.00,0.0944
1144.00,0.0918
1143.00,0.0881
1142.00,0.0837
1141.00,0.0789
1140.00,0.0740
1139.00,0.0690
1138.00,0.0643
1137.00,0.0599
1136.00,0.0560
1135.00,0.0527
1134.00,0.0501
1133.00,0.0482
1132.00,0.0468
1131.00,0.0458
1130.00,0.0449
1129.00,0.0441
1128.00,0.0434
1127.00,0.0433
1126.00,0.0439
1125.00,0.0457
1124.00,0.0488
1123.00,0.0533
1122.00,0.0588
1121.00,0.0647
1120.00,0.0702
1119.00,0.0749
1118.00,0.0785
1117.00,0.0819
1116.00,0.0858
1115.00,0.0912
1114.00,0.0980
1113.00,0.1053
1112.00,0.1115
1111.00,0.1151
1110.00,0.1158
1109.00,0.1147
1108.00,0.1132
1107.00,0.1124
1106.00,0.1125
1105.00,0.1128
1104.00,0.1124
1103.00,0.1103
1102.00,0.1062
1101.00,0.1004
1100.00,0.0937
1099.00,0.0866
1098.00,0.0797
1097.00,0.0736
1096.00,0.0681
1095.00,0.0633
1094.00,0.0591
1093.00,0.0554
1092.00,0.0522
1091.00,0.0496
1090.00,0.0475
1089.00,0.0459
1088.00,0.0449
1087.00,0.0443
1086.00,0.0443
1085.00,0.0449
1084.00,0.0463
1083.00,0.0483
1082.00,0.0507
1081.00,0.0530
1080.00,0.0549
1079.00,0.0560
1078.00,0.0561
1077.00,0.0555
1076.00,0.0543
1075.00,0.0527
1074.00,0.0507
1073.00,0.0485
1072.00,0.0463
1071.00,0.0443
1070.00,0.0430
1069.00,0.0426
1068.00,0.0430
1067.00,0.0442
1066.00,0.0456
1065.00,0.0470
1064.00,0.0481
1063.00,0.0492
1062.00,0.0507
1061.00,0.0532
1060.00,0.0568
1059.00,0.0612
1058.00,0.0660
1057.00,0.0708
1056.00,0.0756
1055.00,0.0809
1054.00,0.0870
1053.00,0.0940
1052.00,0.1013
1051.00,0.1076
1050.00,0.1120
1049.00,0.1139
1048.00,0.1133
1047.00,0.1102
1046.00,0.1050
1045.00,0.0983
1044.00,0.0911
1043.00,0.0847
1042.00,0.0796
1041.00,0.0762
1040.00,0.0746
1039.00,0.0747
1038.00,0.0763
1037.00,0.0794
1036.00,0.0839
1035.00,0.0896
1034.00,0.0960
1033.00,0.1027
1032.00,0.1094
1031.00,0.1159
1030.00,0.1221
1029.00,0.1281
1028.00,0.1342
1027.00,0.1402
1026.00,0.1462
1025.00,0.1519
1024.00,0.1571
1023.00,0.1614
1022.00,0.1642
1021.00,0.1655
1020.00,0.1654
1019.00,0.1642
1018.00,0.1630
1017.00,0.1626
1016.00,0.1633
1015.00,0.1645
1014.00,0.1648
1013.00,0.1633
1012.00,0.1600
1011.00,0.1554
1010.00,0.1507
1009.00,0.1471
1008.00,0.1450
1007.00,0.1449
1006.00,0.1468
1005.00,0.1503
1004.00,0.1548
1003.00,0.1596
1002.00,0.1643
1001.00,0.1687
1000.00,0.1732
999.00,0.1780
998.00,0.1834
997.00,0.1891
996.00,0.1945
995.00,0.1984
994.00,0.1998
993.00,0.1984
992.00,0.1944
991.00,0.1885
990.00,0.1815
989.00,0.1741
988.00,0.1665
987.00,0.1588
986.00,0.1511
985.00,0.1434
984.00,0.1360
983.00,0.1288
982.00,0.1221
981.00,0.1160
980.00,0.1103
979.00,0.1051
978.00,0.1003
977.00,0.0958
976.00,0.0917
975.00,0.0880
974.00,0.0845
973.00,0.0812
972.00,0.0783
971.00,0.0755
970.00,0.0729
969.00,0.0705
968.00,0.0682
967.00,0.0661
966.00,0.0641
965.00,0.0623
964.00,0.0606
963.00,0.0589
962.00,0.0574
961.00,0.0558
960.00,0.0543
959.00,0.0529
958.00,0.0516
957.00,0.0503
956.00,0.0491
955.00,0.0480
954.00,0.0469
953.00,0.0458
952.00,0.0449
951.00,0.0439
950.00,0.0429
949.00,0.0420
948.00,0.0412
947.00,0.0403
946.00,0.0395
945.00,0.0387
944.00,0.0380
943.00,0.0373
942.00,0.0366
941.00,0.0360
940.00,0.0355
939.00,0.0349
938.00,0.0344
937.00,0.0339
936.00,0.0334
935.00,0.0330
934.00,0.0327
933.00,0.0324
932.00,0.0322
931.00,0.0321
930.00,0.0321
929.00,0.0322
928.00,0.0325
927.00,0.0329
926.00,0.0334
925.00,0.0343
924.00,0.0358
923.00,0.0382
922.00,0.0419
921.00,0.0473
920.00,0.0542
919.00,0.0618
918.00,0.0692
917.00,0.0749
916.00,0.0777
915.00,0.0773
914.00,0.0740
913.00,0.0687
912.00,0.0627
911.00,0.0570
910.00,0.0521
909.00,0.0480
908.00,0.0446
907.00,0.0420
906.00,0.0398
905.00,0.0379
904.00,0.0364
903.00,0.0351
902.00,0.0341
901.00,0.0332
900.00,0.0323
899.00,0.0316
898.00,0.0309
897.00,0.0302
896.00,0.0296
895.00,0.0291
894.00,0.0287
893.00,0.0284
892.00,0.0281
891.00,0.0278
890.00,0.0275
889.00,0.0272
888.00,0.0269
887.00,0.0266
886.00,0.0263
885.00,0.0260
884.00,0.0258
883.00,0.0256
882.00,0.0254
881.00,0.0253
880.00,0.0252
879.00,0.0252
878.00,0.0251
877.00,0.0250
876.00,0.0249
875.00,0.0248
874.00,0.0247
873.00,0.0246
872.00,0.0245
871.00,0.0245
870.00,0.0244
869.00,0.0244
868.00,0.0244
867.00,0.0244
866.00,0.0245
865.00,0.0246
864.00,0.0247
863.00,0.0249
862.00,0.0252
861.00,0.0256
860.00,0.0261
859.00,0.0267
858.00,0.0274
857.00,0.0282
856.00,0.0292
855.00,0.0301
854.00,0.0308
853.00,0.0313
852.00,0.0315
851.00,0.0315
850.00,0.0314
849.00,0.0315
848.00,0.0319
847.00,0.0328
846.00,0.0344
845.00,0.0369
844.00,0.0407
843.00,0.0460
842.00,0.0527
841.00,0.0604
840.00,0.0678
839.00,0.0732
838.00,0.0748
837.00,0.0725
836.00,0.0672
835.00,0.0606
834.00,0.0541
833.00,0.0484
832.00,0.0437
831.00,0.0399
830.00,0.0370
829.00,0.0347
828.00,0.0329
827.00,0.0316
826.00,0.0306
825.00,0.0297
824.00,0.0290
823.00,0.0284
822.00,0.0280
821.00,0.0277
820.00,0.0276
819.00,0.0275
818.00,0.0273
817.00,0.0272
816.00,0.0271
815.00,0.0271
814.00,0.0271
813.00,0.0271
812.00,0.0271
811.00,0.0272
810.00,0.0272
809.00,0.0273
808.00,0.0274
807.00,0.0276
806.00,0.0277
805.00,0.0279
804.00,0.0280
803.00,0.0282
802.00,0.0284
801.00,0.0286
800.00,0.0289
799.00,0.0292
798.00,0.0295
797.00,0.0299
796.00,0.0302
795.00,0.0306
794.00,0.0310
793.00,0.0315
792.00,0.0320
791.00,0.0326
790.00,0.0334
789.00,0.0343
788.00,0.0354
787.00,0.0367
786.00,0.0383
785.00,0.0404
784.00,0.0431
783.00,0.0466
782.00,0.0510
781.00,0.0562
780.00,0.0620
779.00,0.0678
778.00,0.0731
777.00,0.0774
776.00,0.0802
775.00,0.0816
774.00,0.0816
773.00,0.0803
772.00,0.0780
771.00,0.0750
770.00,0.0716
769.00,0.0683
768.00,0.0652
767.00,0.0624
766.00,0.0601
765.00,0.0582
764.00,0.0566
763.00,0.0553
762.00,0.0543
761.00,0.0536
760.00,0.0531
759.00,0.0528
758.00,0.0526
757.00,0.0526
756.00,0.0527
755.00,0.0528
754.00,0.0530
753.00,0.0533
752.00,0.0536
751.00,0.0540
750.00,0.0545
749.00,0.0550
748.00,0.0555
747.00,0.0560
746.00,0.0565
745.00,0.0570
744.00,0.0576
743.00,0.0581
742.00,0.0585
741.00,0.0589
740.00,0.0593
739.00,0.0597
738.00,0.0601
737.00,0.0604
736.00,0.0607
735.00,0.0610
734.00,0.0612
733.00,0.0614
732.00,0.0616
731.00,0.0618
730.00,0.0619
729.00,0.0620
728.00,0.0621
727.00,0.0622
726.00,0.0622
725.00,0.0621
724.00,0.0621
723.00,0.0622
722.00,0.0622
721.00,0.0623
720.00,0.0624
719.00,0.0625
718.00,0.0624
717.00,0.0622
716.00,0.0619
715.00,0.0615
714.00,0.0611
713.00,0.0606
712.00,0.0601
711.00,0.0596
710.00,0.0591
709.00,0.0586
708.00,0.0582
707.00,0.0578
706.00,0.0574
705.00,0.0571
704.00,0.0567
703.00,0.0565
702.00,0.0562
701.00,0.0559
700.00,0.0557
699.00,0.0555
698.00,0.0554
697.00,0.0553
696.00,0.0553
695.00,0.0553
694.00,0.0552
693.00,0.0553
692.00,0.0553
691.00,0.0554
690.00,0.0555
689.00,0.0556
688.00,0.0558
687.00,0.0560
686.00,0.0562
685.00,0.0564
684.00,0.0567
683.00,0.0569
682.00,0.0572
681.00,0.0576
680.00,0.0580
679.00,0.0584
678.00,0.0588
677.00,0.0593
676.00,0.0599
675.00,0.0604
674.00,0.0610
673.00,0.0616
672.00,0.0622
671.00,0.0628
670.00,0.0634
669.00,0.0644
668.00,0.0660
667.00,0.0673
666.00,0.0681
665.00,0.0687
664.00,0.0696
663.00,0.0708
662.00,0.0723
661.00,0.0740
660.00,0.0759
659.00,0.0781
658.00,0.0805
657.00,0.0832
656.00,0.0862
655.00,0.0896
654.00,0.0932
653.00,0.0971
652.00,0.1010
651.00,0.1048
650.00,0.1082
649.00,0.1111
648.00,0.1134
647.00,0.1148
646.00,0.1153
645.00,0.1150
644.00,0.1141
643.00,0.1129
642.00,0.1116
641.00,0.1106
640.00,0.1103
639.00,0.1106
638.00,0.1113
637.00,0.1123
636.00,0.1137
635.00,0.1152
634.00,0.1167
633.00,0.1183
632.00,0.1200
631.00,0.1218
630.00,0.1235
629.00,0.1252
628.00,0.1270
627.00,0.1288
626.00,0.1304
625.00,0.1319
624.00,0.1332
623.00,0.1346
622.00,0.1360
621.00,0.1374
620.00,0.1387
619.00,0.1397
618.00,0.1403
617.00,0.1408
616.00,0.1411
615.00,0.1413
614.00,0.1413
613.00,0.1413
612.00,0.1412
611.00,0.1410
610.00,0.1404
609.00,0.1397
608.00,0.1389
607.00,0.1381
606.00,0.1371
605.00,0.1362
604.00,0.1354
603.00,0.1346
602.00,0.1337
601.00,0.1327
600.00,0.1317
599.00,0.1304
598.00,0.1288
597.00,0.1270
596.00,0.1249
595.00,0.1225
594.00,0.1197
593.00,0.1166
592.00,0.1134
591.00,0.1102
590.00,0.1073
589.00,0.1049
588.00,0.1031
587.00,0.1017
586.00,0.1006
585.00,0.0998
584.00,0.0993
583.00,0.0990
582.00,0.0988
581.00,0.0986
580.00,0.0986
579.00,0.0984
578.00,0.0981
577.00,0.0977
576.00,0.0976
575.00,0.0975
574.00,0.0975
573.00,0.0976
572.00,0.0978
571.00,0.0979
570.00,0.0981
569.00,0.0985
568.00,0.0990
567.00,0.0998
566.00,0.1007
565.00,0.1017
564.00,0.1029
563.00,0.1043
562.00,0.1059
561.00,0.1079
560.00,0.1102
559.00,0.1125
558.00,0.1141
557.00,0.1151
556.00,0.1153
555.00,0.1148
554.00,0.1138
553.00,0.1127
552.00,0.1116
551.00,0.1105
550.00,0.1094
549.00,0.1086
548.00,0.1083
547.00,0.1084
546.00,0.1086
545.00,0.1088
544.00,0.1085
543.00,0.1079
542.00,0.1072
541.00,0.1073
540.00,0.1084
539.00,0.1100
538.00,0.1112
537.00,0.1116
536.00,0.1111
535.00,0.1100
534.00,0.1087
533.00,0.1073
532.00,0.1062
531.00,0.1051
530.00,0.1040
529.00,0.1029
528.00,0.1018
527.00,0.1006
526.00,0.0994
525.00,0.0982
524.00,0.0971
523.00,0.0959
522.00,0.0946
521.00,0.0935
520.00,0.0927
519.00,0.0920
518.00,0.0914
517.00,0.0909
516.00,0.0904
515.00,0.0897
514.00,0.0886
513.00,0.0874
512.00,0.0860
511.00,0.0847
510.00,0.0834
509.00,0.0823
508.00,0.0813
507.00,0.0803
506.00,0.0794
505.00,0.0785
504.00,0.0776
503.00,0.0769
502.00,0.0761
501.00,0.0753
500.00,0.0746
499.00,0.0739
498.00,0.0731
497.00,0.0724
496.00,0.0717
495.00,0.0710
494.00,0.0703
493.00,0.0695
492.00,0.0689
491.00,0.0684
490.00,0.0679
489.00,0.0674
488.00,0.0669
487.00,0.0663
486.00,0.0655
485.00,0.0648
484.00,0.0642
483.00,0.0637
482.00,0.0632
481.00,0.0627
480.00,0.0622
479.00,0.0616
478.00,0.0610
477.00,0.0605
476.00,0.0601
475.00,0.0595
474.00,0.0588
473.00,0.0581
472.00,0.0575
471.00,0.0572
470.00,0.0569
469.00,0.0567
468.00,0.0564
467.00,0.0560
466.00,0.0555
465.00,0.0550
464.00,0.0543
463.00,0.0538
462.00,0.0533
461.00,0.0529
460.00,0.0525
459.00,0.0520
458.00,0.0515
457.00,0.0510
456.00,0.0505
455.00,0.0499
454.00,0.0492
453.00,0.0487
452.00,0.0483
451.00,0.0480
450.00,0.0476
449.00,0.0470
448.00,0.0464
447.00,0.0462
446.00,0.0463
445.00,0.0465
444.00,0.0465
443.00,0.0466
442.00,0.0468
441.00,0.0475
440.00,0.0489
439.00,0.0512
438.00,0.0546
437.00,0.0590
436.00,0.0635
435.00,0.0664
434.00,0.0668
433.00,0.0647
432.00,0.0611
431.00,0.0573
430.00,0.0541
429.00,0.0521
428.00,0.0512
427.00,0.0511
426.00,0.0517
425.00,0.0527
424.00,0.0538
423.00,0.0550
422.00,0.0559
421.00,0.0562
420.00,0.0555
419.00,0.0538
418.00,0.0519
417.00,0.0507
416.00,0.0504
415.00,0.0508
414.00,0.0520
413.00,0.0542
412.00,0.0577
411.00,0.0626
410.00,0.0685
409.00,0.0749
408.00,0.0813
407.00,0.0867
406.00,0.0899
405.00,0.0901
404.00,0.0875
403.00,0.0825
402.00,0.0759
401.00,0.0690
400.00,0.0623
