Created as New Dataset,Sample 842 By YargerLab Date Saturday, April 18 2026
cm-1,A
4000.00,0.0148
3999.00,0.0148
3998.00,0.0148
3997.00,0.0148
3996.00,0.0148
3995.00,0.0148
3994.00,0.0148
3993.00,0.0148
3992.00,0.0148
3991.00,0.0148
3990.00,0.0148
3989.00,0.0148
3988.00,0.0148
3987.00,0.0147
3986.00,0.0147
3985.00,0.0147
3984.00,0.0147
3983.00,0.0147
3982.00,0.0147
3981.00,0.0147
3980.00,0.0147
3979.00,0.0147
3978.00,0.0147
3977.00,0.0146
3976.00,0.0146
3975.00,0.0146
3974.00,0.0146
3973.00,0.0147
3972.00,0.0147
3971.00,0.0147
3970.00,0.0147
3969.00,0.0147
3968.00,0.0146
3967.00,0.0146
3966.00,0.0146
3965.00,0.0146
3964.00,0.0146
3963.00,0.0146
3962.00,0.0146
3961.00,0.0146
3960.00,0.0145
3959.00,0.0145
3958.00,0.0145
3957.00,0.0145
3956.00,0.0145
3955.00,0.0145
3954.00,0.0145
3953.00,0.0145
3952.00,0.0145
3951.00,0.0145
3950.00,0.0145
3949.00,0.0145
3948.00,0.0145
3947.00,0.0145
3946.00,0.0145
3945.00,0.0145
3944.00,0.0145
3943.00,0.0145
3942.00,0.0145
3941.00,0.0145
3940.00,0.0145
3939.00,0.0145
3938.00,0.0145
3937.00,0.0145
3936.00,0.0145
3935.00,0.0145
3934.00,0.0145
3933.00,0.0145
3932.00,0.0145
3931.00,0.0144
3930.00,0.0144
3929.00,0.0144
3928.00,0.0145
3927.00,0.0145
3926.00,0.0145
3925.00,0.0145
3924.00,0.0145
3923.00,0.0144
3922.00,0.0144
3921.00,0.0144
3920.00,0.0144
3919.00,0.0144
3918.00,0.0144
3917.00,0.0144
3916.00,0.0144
3915.00,0.0143
3914.00,0.0144
3913.00,0.0144
3912.00,0.0144
3911.00,0.0144
3910.00,0.0144
3909.00,0.0144
3908.00,0.0144
3907.00,0.0144
3906.00,0.0143
3905.00,0.0143
3904.00,0.0143
3903.00,0.0143
3902.00,0.0143
3901.00,0.0143
3900.00,0.0142
3899.00,0.0142
3898.00,0.0142
3897.00,0.0142
3896.00,0.0142
3895.00,0.0142
3894.00,0.0142
3893.00,0.0142
3892.00,0.0142
3891.00,0.0142
3890.00,0.0142
3889.00,0.0142
3888.00,0.0142
3887.00,0.0142
3886.00,0.0142
3885.00,0.0142
3884.00,0.0142
3883.00,0.0141
3882.00,0.0141
3881.00,0.0142
3880.00,0.0142
3879.00,0.0142
3878.00,0.0142
3877.00,0.0142
3876.00,0.0142
3875.00,0.0142
3874.00,0.0142
3873.00,0.0141
3872.00,0.0141
3871.00,0.0141
3870.00,0.0141
3869.00,0.0140
3868.00,0.0140
3867.00,0.0140
3866.00,0.0140
3865.00,0.0140
3864.00,0.0140
3863.00,0.0140
3862.00,0.0140
3861.00,0.0140
3860.00,0.0140
3859.00,0.0140
3858.00,0.0139
3857.00,0.0138
3856.00,0.0138
3855.00,0.0137
3854.00,0.0137
3853.00,0.0138
3852.00,0.0138
3851.00,0.0138
3850.00,0.0138
3849.00,0.0138
3848.00,0.0139
3847.00,0.0139
3846.00,0.0139
3845.00,0.0139
3844.00,0.0139
3843.00,0.0139
3842.00,0.0139
3841.00,0.0139
3840.00,0.0138
3839.00,0.0138
3838.00,0.0138
3837.00,0.0138
3836.00,0.0138
3835.00,0.0138
3834.00,0.0138
3833.00,0.0138
3832.00,0.0138
3831.00,0.0138
3830.00,0.0138
3829.00,0.0138
3828.00,0.0138
3827.00,0.0138
3826.00,0.0138
3825.00,0.0137
3824.00,0.0137
3823.00,0.0137
3822.00,0.0137
3821.00,0.0137
3820.00,0.0137
3819.00,0.0137
3818.00,0.0137
3817.00,0.0137
3816.00,0.0137
3815.00,0.0137
3814.00,0.0137
3813.00,0.0137
3812.00,0.0137
3811.00,0.0137
3810.00,0.0137
3809.00,0.0137
3808.00,0.0137
3807.00,0.0136
3806.00,0.0136
3805.00,0.0136
3804.00,0.0136
3803.00,0.0136
3802.00,0.0136
3801.00,0.0137
3800.00,0.0137
3799.00,0.0137
3798.00,0.0137
3797.00,0.0137
3796.00,0.0137
3795.00,0.0137
3794.00,0.0137
3793.00,0.0136
3792.00,0.0136
3791.00,0.0136
3790.00,0.0137
3789.00,0.0137
3788.00,0.0137
3787.00,0.0137
3786.00,0.0137
3785.00,0.0137
3784.00,0.0136
3783.00,0.0136
3782.00,0.0136
3781.00,0.0136
3780.00,0.0136
3779.00,0.0136
3778.00,0.0136
3777.00,0.0135
3776.00,0.0135
3775.00,0.0135
3774.00,0.0135
3773.00,0.0135
3772.00,0.0134
3771.00,0.0134
3770.00,0.0134
3769.00,0.0134
3768.00,0.0134
3767.00,0.0133
3766.00,0.0133
3765.00,0.0133
3764.00,0.0133
3763.00,0.0133
3762.00,0.0133
3761.00,0.0133
3760.00,0.0134
3759.00,0.0134
3758.00,0.0133
3757.00,0.0133
3756.00,0.0132
3755.00,0.0132
3754.00,0.0131
3753.00,0.0130
3752.00,0.0130
3751.00,0.0131
3750.00,0.0131
3749.00,0.0131
3748.00,0.0131
3747.00,0.0131
3746.00,0.0131
3745.00,0.0130
3744.00,0.0129
3743.00,0.0129
3742.00,0.0129
3741.00,0.0129
3740.00,0.0129
3739.00,0.0129
3738.00,0.0129
3737.00,0.0129
3736.00,0.0129
3735.00,0.0129
3734.00,0.0128
3733.00,0.0128
3732.00,0.0128
3731.00,0.0128
3730.00,0.0128
3729.00,0.0128
3728.00,0.0128
3727.00,0.0128
3726.00,0.0127
3725.00,0.0127
3724.00,0.0127
3723.00,0.0127
3722.00,0.0127
3721.00,0.0127
3720.00,0.0127
3719.00,0.0127
3718.00,0.0127
3717.00,0.0127
3716.00,0.0127
3715.00,0.0127
3714.00,0.0127
3713.00,0.0127
3712.00,0.0127
3711.00,0.0127
3710.00,0.0126
3709.00,0.0126
3708.00,0.0126
3707.00,0.0126
3706.00,0.0126
3705.00,0.0126
3704.00,0.0125
3703.00,0.0125
3702.00,0.0125
3701.00,0.0124
3700.00,0.0124
3699.00,0.0124
3698.00,0.0124
3697.00,0.0124
3696.00,0.0124
3695.00,0.0124
3694.00,0.0124
3693.00,0.0124
3692.00,0.0124
3691.00,0.0123
3690.00,0.0123
3689.00,0.0123
3688.00,0.0123
3687.00,0.0123
3686.00,0.0123
3685.00,0.0123
3684.00,0.0123
3683.00,0.0123
3682.00,0.0123
3681.00,0.0123
3680.00,0.0122
3679.00,0.0122
3678.00,0.0122
3677.00,0.0122
3676.00,0.0122
3675.00,0.0122
3674.00,0.0122
3673.00,0.0122
3672.00,0.0122
3671.00,0.0122
3670.00,0.0122
3669.00,0.0121
3668.00,0.0121
3667.00,0.0121
3666.00,0.0121
3665.00,0.0121
3664.00,0.0121
3663.00,0.0121
3662.00,0.0121
3661.00,0.0121
3660.00,0.0122
3659.00,0.0122
3658.00,0.0122
3657.00,0.0122
3656.00,0.0122
3655.00,0.0121
3654.00,0.0121
3653.00,0.0121
3652.00,0.0121
3651.00,0.0121
3650.00,0.0122
3649.00,0.0123
3648.00,0.0123
3647.00,0.0122
3646.00,0.0122
3645.00,0.0122
3644.00,0.0122
3643.00,0.0122
3642.00,0.0122
3641.00,0.0122
3640.00,0.0122
3639.00,0.0122
3638.00,0.0122
3637.00,0.0122
3636.00,0.0121
3635.00,0.0121
3634.00,0.0121
3633.00,0.0121
3632.00,0.0121
3631.00,0.0121
3630.00,0.0121
3629.00,0.0121
3628.00,0.0121
3627.00,0.0121
3626.00,0.0120
3625.00,0.0121
3624.00,0.0121
3623.00,0.0121
3622.00,0.0121
3621.00,0.0121
3620.00,0.0121
3619.00,0.0121
3618.00,0.0121
3617.00,0.0121
3616.00,0.0121
3615.00,0.0121
3614.00,0.0120
3613.00,0.0120
3612.00,0.0120
3611.00,0.0120
3610.00,0.0120
3609.00,0.0120
3608.00,0.0120
3607.00,0.0120
3606.00,0.0120
3605.00,0.0120
3604.00,0.0120
3603.00,0.0120
3602.00,0.0120
3601.00,0.0119
3600.00,0.0119
3599.00,0.0119
3598.00,0.0119
3597.00,0.0119
3596.00,0.0119
3595.00,0.0119
3594.00,0.0118
3593.00,0.0118
3592.00,0.0118
3591.00,0.0118
3590.00,0.0118
3589.00,0.0118
3588.00,0.0118
3587.00,0.0118
3586.00,0.0117
3585.00,0.0117
3584.00,0.0118
3583.00,0.0118
3582.00,0.0118
3581.00,0.0118
3580.00,0.0118
3579.00,0.0118
3578.00,0.0118
3577.00,0.0118
3576.00,0.0118
3575.00,0.0118
3574.00,0.0118
3573.00,0.0118
3572.00,0.0118
3571.00,0.0118
3570.00,0.0118
3569.00,0.0118
3568.00,0.0118
3567.00,0.0118
3566.00,0.0118
3565.00,0.0117
3564.00,0.0117
3563.00,0.0117
3562.00,0.0117
3561.00,0.0117
3560.00,0.0117
3559.00,0.0118
3558.00,0.0118
3557.00,0.0118
3556.00,0.0119
3555.00,0.0119
3554.00,0.0119
3553.00,0.0119
3552.00,0.0119
3551.00,0.0118
3550.00,0.0118
3549.00,0.0117
3548.00,0.0117
3547.00,0.0117
3546.00,0.0117
3545.00,0.0117
3544.00,0.0117
3543.00,0.0118
3542.00,0.0118
3541.00,0.0118
3540.00,0.0119
3539.00,0.0119
3538.00,0.0119
3537.00,0.0119
3536.00,0.0118
3535.00,0.0118
3534.00,0.0118
3533.00,0.0118
3532.00,0.0119
3531.00,0.0119
3530.00,0.0119
3529.00,0.0119
3528.00,0.0120
3527.00,0.0120
3526.00,0.0120
3525.00,0.0119
3524.00,0.0119
3523.00,0.0119
3522.00,0.0119
3521.00,0.0119
3520.00,0.0119
3519.00,0.0119
3518.00,0.0120
3517.00,0.0120
3516.00,0.0120
3515.00,0.0120
3514.00,0.0120
3513.00,0.0120
3512.00,0.0121
3511.00,0.0121
3510.00,0.0121
3509.00,0.0121
3508.00,0.0121
3507.00,0.0121
3506.00,0.0120
3505.00,0.0120
3504.00,0.0120
3503.00,0.0120
3502.00,0.0120
3501.00,0.0120
3500.00,0.0120
3499.00,0.0120
3498.00,0.0120
3497.00,0.0120
3496.00,0.0120
3495.00,0.0120
3494.00,0.0121
3493.00,0.0121
3492.00,0.0121
3491.00,0.0121
3490.00,0.0121
3489.00,0.0121
3488.00,0.0121
3487.00,0.0120
3486.00,0.0120
3485.00,0.0120
3484.00,0.0120
3483.00,0.0120
3482.00,0.0120
3481.00,0.0120
3480.00,0.0120
3479.00,0.0120
3478.00,0.0120
3477.00,0.0120
3476.00,0.0120
3475.00,0.0120
3474.00,0.0120
3473.00,0.0119
3472.00,0.0119
3471.00,0.0119
3470.00,0.0119
3469.00,0.0119
3468.00,0.0120
3467.00,0.0120
3466.00,0.0120
3465.00,0.0120
3464.00,0.0121
3463.00,0.0120
3462.00,0.0120
3461.00,0.0120
3460.00,0.0120
3459.00,0.0121
3458.00,0.0121
3457.00,0.0121
3456.00,0.0122
3455.00,0.0122
3454.00,0.0123
3453.00,0.0123
3452.00,0.0123
3451.00,0.0123
3450.00,0.0123
3449.00,0.0123
3448.00,0.0123
3447.00,0.0124
3446.00,0.0124
3445.00,0.0124
3444.00,0.0125
3443.00,0.0125
3442.00,0.0125
3441.00,0.0125
3440.00,0.0125
3439.00,0.0124
3438.00,0.0124
3437.00,0.0124
3436.00,0.0124
3435.00,0.0125
3434.00,0.0125
3433.00,0.0126
3432.00,0.0127
3431.00,0.0127
3430.00,0.0128
3429.00,0.0129
3428.00,0.0129
3427.00,0.0130
3426.00,0.0130
3425.00,0.0131
3424.00,0.0131
3423.00,0.0131
3422.00,0.0131
3421.00,0.0132
3420.00,0.0132
3419.00,0.0133
3418.00,0.0134
3417.00,0.0134
3416.00,0.0134
3415.00,0.0134
3414.00,0.0133
3413.00,0.0133
3412.00,0.0134
3411.00,0.0135
3410.00,0.0136
3409.00,0.0137
3408.00,0.0138
3407.00,0.0139
3406.00,0.0139
3405.00,0.0139
3404.00,0.0138
3403.00,0.0137
3402.00,0.0136
3401.00,0.0137
3400.00,0.0138
3399.00,0.0140
3398.00,0.0142
3397.00,0.0143
3396.00,0.0144
3395.00,0.0144
3394.00,0.0143
3393.00,0.0143
3392.00,0.0144
3391.00,0.0145
3390.00,0.0147
3389.00,0.0149
3388.00,0.0151
3387.00,0.0152
3386.00,0.0153
3385.00,0.0154
3384.00,0.0155
3383.00,0.0155
3382.00,0.0155
3381.00,0.0156
3380.00,0.0156
3379.00,0.0157
3378.00,0.0157
3377.00,0.0158
3376.00,0.0159
3375.00,0.0160
3374.00,0.0160
3373.00,0.0160
3372.00,0.0159
3371.00,0.0158
3370.00,0.0157
3369.00,0.0157
3368.00,0.0159
3367.00,0.0161
3366.00,0.0163
3365.00,0.0165
3364.00,0.0167
3363.00,0.0168
3362.00,0.0168
3361.00,0.0169
3360.00,0.0170
3359.00,0.0171
3358.00,0.0173
3357.00,0.0174
3356.00,0.0174
3355.00,0.0175
3354.00,0.0174
3353.00,0.0173
3352.00,0.0173
3351.00,0.0173
3350.00,0.0174
3349.00,0.0177
3348.00,0.0179
3347.00,0.0180
3346.00,0.0181
3345.00,0.0181
3344.00,0.0181
3343.00,0.0181
3342.00,0.0182
3341.00,0.0182
3340.00,0.0182
3339.00,0.0183
3338.00,0.0184
3337.00,0.0186
3336.00,0.0188
3335.00,0.0190
3334.00,0.0192
3333.00,0.0193
3332.00,0.0194
3331.00,0.0195
3330.00,0.0196
3329.00,0.0196
3328.00,0.0196
3327.00,0.0196
3326.00,0.0196
3325.00,0.0198
3324.00,0.0200
3323.00,0.0202
3322.00,0.0204
3321.00,0.0206
3320.00,0.0207
3319.00,0.0208
3318.00,0.0209
3317.00,0.0210
3316.00,0.0212
3315.00,0.0213
3314.00,0.0214
3313.00,0.0214
3312.00,0.0214
3311.00,0.0214
3310.00,0.0213
3309.00,0.0212
3308.00,0.0211
3307.00,0.0211
3306.00,0.0212
3305.00,0.0215
3304.00,0.0218
3303.00,0.0222
3302.00,0.0225
3301.00,0.0228
3300.00,0.0229
3299.00,0.0229
3298.00,0.0230
3297.00,0.0230
3296.00,0.0230
3295.00,0.0231
3294.00,0.0232
3293.00,0.0233
3292.00,0.0235
3291.00,0.0238
3290.00,0.0241
3289.00,0.0244
3288.00,0.0246
3287.00,0.0248
3286.00,0.0249
3285.00,0.0251
3284.00,0.0253
3283.00,0.0254
3282.00,0.0256
3281.00,0.0258
3280.00,0.0259
3279.00,0.0260
3278.00,0.0261
3277.00,0.0262
3276.00,0.0263
3275.00,0.0264
3274.00,0.0264
3273.00,0.0265
3272.00,0.0266
3271.00,0.0268
3270.00,0.0271
3269.00,0.0275
3268.00,0.0279
3267.00,0.0282
3266.00,0.0284
3265.00,0.0286
3264.00,0.0288
3263.00,0.0290
3262.00,0.0292
3261.00,0.0294
3260.00,0.0295
3259.00,0.0296
3258.00,0.0297
3257.00,0.0298
3256.00,0.0300
3255.00,0.0301
3254.00,0.0303
3253.00,0.0305
3252.00,0.0307
3251.00,0.0308
3250.00,0.0309
3249.00,0.0309
3248.00,0.0310
3247.00,0.0311
3246.00,0.0313
3245.00,0.0316
3244.00,0.0318
3243.00,0.0320
3242.00,0.0322
3241.00,0.0324
3240.00,0.0325
3239.00,0.0327
3238.00,0.0328
3237.00,0.0329
3236.00,0.0330
3235.00,0.0330
3234.00,0.0331
3233.00,0.0334
3232.00,0.0337
3231.00,0.0341
3230.00,0.0344
3229.00,0.0346
3228.00,0.0349
3227.00,0.0351
3226.00,0.0353
3225.00,0.0355
3224.00,0.0357
3223.00,0.0359
3222.00,0.0361
3221.00,0.0363
3220.00,0.0365
3219.00,0.0367
3218.00,0.0369
3217.00,0.0371
3216.00,0.0373
3215.00,0.0375
3214.00,0.0377
3213.00,0.0379
3212.00,0.0382
3211.00,0.0384
3210.00,0.0386
3209.00,0.0388
3208.00,0.0390
3207.00,0.0392
3206.00,0.0395
3205.00,0.0397
3204.00,0.0400
3203.00,0.0402
3202.00,0.0405
3201.00,0.0407
3200.00,0.0409
3199.00,0.0412
3198.00,0.0415
3197.00,0.0418
3196.00,0.0420
3195.00,0.0423
3194.00,0.0426
3193.00,0.0428
3192.00,0.0430
3191.00,0.0433
3190.00,0.0435
3189.00,0.0438
3188.00,0.0440
3187.00,0.0443
3186.00,0.0445
3185.00,0.0448
3184.00,0.0450
3183.00,0.0453
3182.00,0.0456
3181.00,0.0458
3180.00,0.0460
3179.00,0.0463
3178.00,0.0465
3177.00,0.0468
3176.00,0.0470
3175.00,0.0473
3174.00,0.0475
3173.00,0.0477
3172.00,0.0480
3171.00,0.0482
3170.00,0.0485
3169.00,0.0487
3168.00,0.0489
3167.00,0.0491
3166.00,0.0494
3165.00,0.0496
3164.00,0.0498
3163.00,0.0501
3162.00,0.0503
3161.00,0.0506
3160.00,0.0508
3159.00,0.0511
3158.00,0.0513
3157.00,0.0515
3156.00,0.0517
3155.00,0.0518
3154.00,0.0520
3153.00,0.0522
3152.00,0.0525
3151.00,0.0529
3150.00,0.0532
3149.00,0.0536
3148.00,0.0539
3147.00,0.0541
3146.00,0.0544
3145.00,0.0546
3144.00,0.0549
3143.00,0.0551
3142.00,0.0553
3141.00,0.0555
3140.00,0.0557
3139.00,0.0560
3138.00,0.0563
3137.00,0.0567
3136.00,0.0570
3135.00,0.0573
3134.00,0.0576
3133.00,0.0578
3132.00,0.0581
3131.00,0.0583
3130.00,0.0586
3129.00,0.0589
3128.00,0.0592
3127.00,0.0595
3126.00,0.0598
3125.00,0.0601
3124.00,0.0603
3123.00,0.0605
3122.00,0.0607
3121.00,0.0609
3120.00,0.0612
3119.00,0.0615
3118.00,0.0618
3117.00,0.0621
3116.00,0.0625
3115.00,0.0630
3114.00,0.0634
3113.00,0.0640
3112.00,0.0645
3111.00,0.0650
3110.00,0.0656
3109.00,0.0663
3108.00,0.0672
3107.00,0.0682
3106.00,0.0694
3105.00,0.0706
3104.00,0.0718
3103.00,0.0729
3102.00,0.0739
3101.00,0.0747
3100.00,0.0751
3099.00,0.0754
3098.00,0.0754
3097.00,0.0754
3096.00,0.0754
3095.00,0.0756
3094.00,0.0761
3093.00,0.0770
3092.00,0.0785
3091.00,0.0807
3090.00,0.0837
3089.00,0.0875
3088.00,0.0919
3087.00,0.0967
3086.00,0.1015
3085.00,0.1057
3084.00,0.1089
3083.00,0.1107
3082.00,0.1109
3081.00,0.1096
3080.00,0.1073
3079.00,0.1046
3078.00,0.1019
3077.00,0.0995
3076.00,0.0975
3075.00,0.0958
3074.00,0.0944
3073.00,0.0931
3072.00,0.0921
3071.00,0.0912
3070.00,0.0904
3069.00,0.0897
3068.00,0.0891
3067.00,0.0887
3066.00,0.0884
3065.00,0.0882
3064.00,0.0880
3063.00,0.0879
3062.00,0.0879
3061.00,0.0878
3060.00,0.0878
3059.00,0.0878
3058.00,0.0878
3057.00,0.0878
3056.00,0.0879
3055.00,0.0880
3054.00,0.0881
3053.00,0.0882
3052.00,0.0883
3051.00,0.0884
3050.00,0.0886
3049.00,0.0887
3048.00,0.0888
3047.00,0.0890
3046.00,0.0891
3045.00,0.0892
3044.00,0.0893
3043.00,0.0894
3042.00,0.0895
3041.00,0.0897
3040.00,0.0898
3039.00,0.0899
3038.00,0.0900
3037.00,0.0901
3036.00,0.0901
3035.00,0.0902
3034.00,0.0903
3033.00,0.0903
3032.00,0.0904
3031.00,0.0906
3030.00,0.0907
3029.00,0.0908
3028.00,0.0910
3027.00,0.0912
3026.00,0.0914
3025.00,0.0916
3024.00,0.0918
3023.00,0.0920
3022.00,0.0922
3021.00,0.0925
3020.00,0.0927
3019.00,0.0929
3018.00,0.0931
3017.00,0.0933
3016.00,0.0936
3015.00,0.0938
3014.00,0.0941
3013.00,0.0943
3012.00,0.0946
3011.00,0.0948
3010.00,0.0950
3009.00,0.0952
3008.00,0.0954
3007.00,0.0956
3006.00,0.0958
3005.00,0.0959
3004.00,0.0961
3003.00,0.0962
3002.00,0.0963
3001.00,0.0964
3000.00,0.0966
2999.00,0.0967
2998.00,0.0968
2997.00,0.0969
2996.00,0.0970
2995.00,0.0971
2994.00,0.0971
2993.00,0.0972
2992.00,0.0973
2991.00,0.0973
2990.00,0.0974
2989.00,0.0974
2988.00,0.0975
2987.00,0.0974
2986.00,0.0974
2985.00,0.0973
2984.00,0.0971
2983.00,0.0969
2982.00,0.0968
2981.00,0.0967
2980.00,0.0967
2979.00,0.0967
2978.00,0.0967
2977.00,0.0967
2976.00,0.0967
2975.00,0.0966
2974.00,0.0964
2973.00,0.0963
2972.00,0.0961
2971.00,0.0959
2970.00,0.0958
2969.00,0.0957
2968.00,0.0957
2967.00,0.0956
2966.00,0.0955
2965.00,0.0954
2964.00,0.0953
2963.00,0.0953
2962.00,0.0952
2961.00,0.0951
2960.00,0.0951
2959.00,0.0951
2958.00,0.0951
2957.00,0.0951
2956.00,0.0952
2955.00,0.0952
2954.00,0.0953
2953.00,0.0954
2952.00,0.0955
2951.00,0.0956
2950.00,0.0957
2949.00,0.0958
2948.00,0.0958
2947.00,0.0959
2946.00,0.0960
2945.00,0.0960
2944.00,0.0960
2943.00,0.0960
2942.00,0.0960
2941.00,0.0960
2940.00,0.0960
2939.00,0.0960
2938.00,0.0959
2937.00,0.0959
2936.00,0.0958
2935.00,0.0958
2934.00,0.0958
2933.00,0.0958
2932.00,0.0959
2931.00,0.0960
2930.00,0.0961
2929.00,0.0963
2928.00,0.0965
2927.00,0.0967
2926.00,0.0969
2925.00,0.0972
2924.00,0.0975
2923.00,0.0978
2922.00,0.0981
2921.00,0.0984
2920.00,0.0987
2919.00,0.0991
2918.00,0.0994
2917.00,0.0996
2916.00,0.0999
2915.00,0.1001
2914.00,0.1002
2913.00,0.1004
2912.00,0.1005
2911.00,0.1006
2910.00,0.1006
2909.00,0.1007
2908.00,0.1007
2907.00,0.1007
2906.00,0.1006
2905.00,0.1006
2904.00,0.1006
2903.00,0.1006
2902.00,0.1006
2901.00,0.1006
2900.00,0.1006
2899.00,0.1007
2898.00,0.1007
2897.00,0.1008
2896.00,0.1009
2895.00,0.1011
2894.00,0.1012
2893.00,0.1014
2892.00,0.1017
2891.00,0.1019
2890.00,0.1022
2889.00,0.1026
2888.00,0.1030
2887.00,0.1034
2886.00,0.1039
2885.00,0.1044
2884.00,0.1050
2883.00,0.1055
2882.00,0.1061
2881.00,0.1067
2880.00,0.1074
2879.00,0.1079
2878.00,0.1085
2877.00,0.1090
2876.00,0.1094
2875.00,0.1098
2874.00,0.1102
2873.00,0.1106
2872.00,0.1110
2871.00,0.1113
2870.00,0.1116
2869.00,0.1119
2868.00,0.1121
2867.00,0.1123
2866.00,0.1125
2865.00,0.1126
2864.00,0.1127
2863.00,0.1127
2862.00,0.1127
2861.00,0.1127
2860.00,0.1127
2859.00,0.1126
2858.00,0.1125
2857.00,0.1125
2856.00,0.1123
2855.00,0.1122
2854.00,0.1120
2853.00,0.1118
2852.00,0.1117
2851.00,0.1115
2850.00,0.1113
2849.00,0.1111
2848.00,0.1109
2847.00,0.1108
2846.00,0.1107
2845.00,0.1107
2844.00,0.1107
2843.00,0.1107
2842.00,0.1107
2841.00,0.1106
2840.00,0.1106
2839.00,0.1107
2838.00,0.1108
2837.00,0.1109
2836.00,0.1111
2835.00,0.1112
2834.00,0.1114
2833.00,0.1115
2832.00,0.1116
2831.00,0.1116
2830.00,0.1117
2829.00,0.1118
2828.00,0.1118
2827.00,0.1118
2826.00,0.1118
2825.00,0.1118
2824.00,0.1118
2823.00,0.1117
2822.00,0.1117
2821.00,0.1116
2820.00,0.1115
2819.00,0.1113
2818.00,0.1111
2817.00,0.1110
2816.00,0.1108
2815.00,0.1106
2814.00,0.1104
2813.00,0.1102
2812.00,0.1100
2811.00,0.1097
2810.00,0.1095
2809.00,0.1093
2808.00,0.1090
2807.00,0.1088
2806.00,0.1085
2805.00,0.1083
2804.00,0.1080
2803.00,0.1077
2802.00,0.1074
2801.00,0.1071
2800.00,0.1068
2799.00,0.1065
2798.00,0.1061
2797.00,0.1058
2796.00,0.1055
2795.00,0.1052
2794.00,0.1049
2793.00,0.1046
2792.00,0.1043
2791.00,0.1039
2790.00,0.1036
2789.00,0.1032
2788.00,0.1029
2787.00,0.1026
2786.00,0.1023
2785.00,0.1019
2784.00,0.1015
2783.00,0.1011
2782.00,0.1008
2781.00,0.1004
2780.00,0.1001
2779.00,0.0998
2778.00,0.0994
2777.00,0.0990
2776.00,0.0986
2775.00,0.0982
2774.00,0.0978
2773.00,0.0974
2772.00,0.0970
2771.00,0.0967
2770.00,0.0963
2769.00,0.0960
2768.00,0.0956
2767.00,0.0953
2766.00,0.0949
2765.00,0.0946
2764.00,0.0943
2763.00,0.0940
2762.00,0.0937
2761.00,0.0934
2760.00,0.0931
2759.00,0.0929
2758.00,0.0927
2757.00,0.0925
2756.00,0.0922
2755.00,0.0920
2754.00,0.0918
2753.00,0.0916
2752.00,0.0915
2751.00,0.0913
2750.00,0.0911
2749.00,0.0909
2748.00,0.0908
2747.00,0.0906
2746.00,0.0904
2745.00,0.0902
2744.00,0.0900
2743.00,0.0897
2742.00,0.0895
2741.00,0.0893
2740.00,0.0892
2739.00,0.0890
2738.00,0.0888
2737.00,0.0887
2736.00,0.0886
2735.00,0.0885
2734.00,0.0885
2733.00,0.0885
2732.00,0.0886
2731.00,0.0886
2730.00,0.0887
2729.00,0.0888
2728.00,0.0890
2727.00,0.0891
2726.00,0.0893
2725.00,0.0895
2724.00,0.0897
2723.00,0.0898
2722.00,0.0900
2721.00,0.0902
2720.00,0.0904
2719.00,0.0906
2718.00,0.0908
2717.00,0.0910
2716.00,0.0912
2715.00,0.0914
2714.00,0.0917
2713.00,0.0920
2712.00,0.0923
2711.00,0.0927
2710.00,0.0931
2709.00,0.0935
2708.00,0.0939
2707.00,0.0944
2706.00,0.0948
2705.00,0.0953
2704.00,0.0957
2703.00,0.0962
2702.00,0.0967
2701.00,0.0972
2700.00,0.0976
2699.00,0.0981
2698.00,0.0985
2697.00,0.0989
2696.00,0.0993
2695.00,0.0996
2694.00,0.0998
2693.00,0.1000
2692.00,0.1002
2691.00,0.1004
2690.00,0.1005
2689.00,0.1007
2688.00,0.1008
2687.00,0.1010
2686.00,0.1011
2685.00,0.1013
2684.00,0.1014
2683.00,0.1015
2682.00,0.1016
2681.00,0.1016
2680.00,0.1017
2679.00,0.1018
2678.00,0.1018
2677.00,0.1018
2676.00,0.1019
2675.00,0.1019
2674.00,0.1019
2673.00,0.1019
2672.00,0.1019
2671.00,0.1020
2670.00,0.1021
2669.00,0.1022
2668.00,0.1024
2667.00,0.1025
2666.00,0.1027
2665.00,0.1029
2664.00,0.1031
2663.00,0.1033
2662.00,0.1035
2661.00,0.1036
2660.00,0.1037
2659.00,0.1038
2658.00,0.1038
2657.00,0.1038
2656.00,0.1037
2655.00,0.1036
2654.00,0.1035
2653.00,0.1032
2652.00,0.1029
2651.00,0.1026
2650.00,0.1022
2649.00,0.1019
2648.00,0.1015
2647.00,0.1010
2646.00,0.1006
2645.00,0.1001
2644.00,0.0997
2643.00,0.0992
2642.00,0.0987
2641.00,0.0983
2640.00,0.0978
2639.00,0.0973
2638.00,0.0969
2637.00,0.0964
2636.00,0.0960
2635.00,0.0955
2634.00,0.0951
2633.00,0.0947
2632.00,0.0943
2631.00,0.0938
2630.00,0.0934
2629.00,0.0929
2628.00,0.0924
2627.00,0.0920
2626.00,0.0915
2625.00,0.0910
2624.00,0.0906
2623.00,0.0902
2622.00,0.0897
2621.00,0.0893
2620.00,0.0889
2619.00,0.0885
2618.00,0.0882
2617.00,0.0878
2616.00,0.0875
2615.00,0.0872
2614.00,0.0870
2613.00,0.0868
2612.00,0.0867
2611.00,0.0866
2610.00,0.0865
2609.00,0.0864
2608.00,0.0863
2607.00,0.0862
2606.00,0.0861
2605.00,0.0861
2604.00,0.0860
2603.00,0.0860
2602.00,0.0860
2601.00,0.0860
2600.00,0.0860
2599.00,0.0860
2598.00,0.0860
2597.00,0.0860
2596.00,0.0861
2595.00,0.0864
2594.00,0.0867
2593.00,0.0871
2592.00,0.0876
2591.00,0.0883
2590.00,0.0890
2589.00,0.0899
2588.00,0.0908
2587.00,0.0917
2586.00,0.0925
2585.00,0.0934
2584.00,0.0941
2583.00,0.0947
2582.00,0.0951
2581.00,0.0955
2580.00,0.0957
2579.00,0.0959
2578.00,0.0960
2577.00,0.0960
2576.00,0.0959
2575.00,0.0958
2574.00,0.0956
2573.00,0.0954
2572.00,0.0951
2571.00,0.0948
2570.00,0.0945
2569.00,0.0943
2568.00,0.0941
2567.00,0.0940
2566.00,0.0940
2565.00,0.0939
2564.00,0.0939
2563.00,0.0940
2562.00,0.0940
2561.00,0.0940
2560.00,0.0941
2559.00,0.0940
2558.00,0.0939
2557.00,0.0937
2556.00,0.0936
2555.00,0.0935
2554.00,0.0934
2553.00,0.0934
2552.00,0.0934
2551.00,0.0936
2550.00,0.0939
2549.00,0.0943
2548.00,0.0948
2547.00,0.0954
2546.00,0.0962
2545.00,0.0971
2544.00,0.0981
2543.00,0.0992
2542.00,0.1004
2541.00,0.1015
2540.00,0.1026
2539.00,0.1036
2538.00,0.1046
2537.00,0.1054
2536.00,0.1060
2535.00,0.1065
2534.00,0.1068
2533.00,0.1069
2532.00,0.1069
2531.00,0.1069
2530.00,0.1068
2529.00,0.1066
2528.00,0.1064
2527.00,0.1062
2526.00,0.1060
2525.00,0.1058
2524.00,0.1056
2523.00,0.1055
2522.00,0.1054
2521.00,0.1053
2520.00,0.1053
2519.00,0.1053
2518.00,0.1054
2517.00,0.1054
2516.00,0.1054
2515.00,0.1054
2514.00,0.1054
2513.00,0.1053
2512.00,0.1051
2511.00,0.1049
2510.00,0.1047
2509.00,0.1044
2508.00,0.1041
2507.00,0.1037
2506.00,0.1034
2505.00,0.1029
2504.00,0.1025
2503.00,0.1019
2502.00,0.1014
2501.00,0.1008
2500.00,0.1003
2499.00,0.0998
2498.00,0.0992
2497.00,0.0986
2496.00,0.0980
2495.00,0.0974
2494.00,0.0968
2493.00,0.0961
2492.00,0.0956
2491.00,0.0951
2490.00,0.0945
2489.00,0.0940
2488.00,0.0935
2487.00,0.0930
2486.00,0.0926
2485.00,0.0922
2484.00,0.0917
2483.00,0.0913
2482.00,0.0909
2481.00,0.0905
2480.00,0.0901
2479.00,0.0897
2478.00,0.0893
2477.00,0.0888
2476.00,0.0884
2475.00,0.0880
2474.00,0.0876
2473.00,0.0872
2472.00,0.0867
2471.00,0.0863
2470.00,0.0858
2469.00,0.0854
2468.00,0.0850
2467.00,0.0846
2466.00,0.0841
2465.00,0.0837
2464.00,0.0833
2463.00,0.0828
2462.00,0.0824
2461.00,0.0820
2460.00,0.0816
2459.00,0.0812
2458.00,0.0808
2457.00,0.0805
2456.00,0.0801
2455.00,0.0797
2454.00,0.0794
2453.00,0.0790
2452.00,0.0786
2451.00,0.0783
2450.00,0.0779
2449.00,0.0776
2448.00,0.0773
2447.00,0.0769
2446.00,0.0766
2445.00,0.0763
2444.00,0.0759
2443.00,0.0756
2442.00,0.0753
2441.00,0.0750
2440.00,0.0746
2439.00,0.0743
2438.00,0.0740
2437.00,0.0737
2436.00,0.0734
2435.00,0.0731
2434.00,0.0728
2433.00,0.0725
2432.00,0.0722
2431.00,0.0719
2430.00,0.0717
2429.00,0.0714
2428.00,0.0712
2427.00,0.0709
2426.00,0.0707
2425.00,0.0704
2424.00,0.0702
2423.00,0.0699
2422.00,0.0697
2421.00,0.0695
2420.00,0.0693
2419.00,0.0691
2418.00,0.0688
2417.00,0.0686
2416.00,0.0683
2415.00,0.0680
2414.00,0.0678
2413.00,0.0676
2412.00,0.0674
2411.00,0.0672
2410.00,0.0669
2409.00,0.0667
2408.00,0.0665
2407.00,0.0663
2406.00,0.0661
2405.00,0.0659
2404.00,0.0657
2403.00,0.0655
2402.00,0.0653
2401.00,0.0651
2400.00,0.0649
2399.00,0.0647
2398.00,0.0645
2397.00,0.0643
2396.00,0.0641
2395.00,0.0640
2394.00,0.0638
2393.00,0.0636
2392.00,0.0634
2391.00,0.0633
2390.00,0.0631
2389.00,0.0629
2388.00,0.0628
2387.00,0.0626
2386.00,0.0625
2385.00,0.0623
2384.00,0.0622
2383.00,0.0620
2382.00,0.0618
2381.00,0.0616
2380.00,0.0614
2379.00,0.0612
2378.00,0.0610
2377.00,0.0609
2376.00,0.0608
2375.00,0.0607
2374.00,0.0606
2373.00,0.0605
2372.00,0.0604
2371.00,0.0602
2370.00,0.0601
2369.00,0.0599
2368.00,0.0598
2367.00,0.0596
2366.00,0.0594
2365.00,0.0593
2364.00,0.0592
2363.00,0.0591
2362.00,0.0590
2361.00,0.0589
2360.00,0.0588
2359.00,0.0588
2358.00,0.0587
2357.00,0.0586
2356.00,0.0585
2355.00,0.0585
2354.00,0.0584
2353.00,0.0583
2352.00,0.0581
2351.00,0.0579
2350.00,0.0576
2349.00,0.0573
2348.00,0.0570
2347.00,0.0566
2346.00,0.0563
2345.00,0.0561
2344.00,0.0560
2343.00,0.0559
2342.00,0.0559
2341.00,0.0558
2340.00,0.0557
2339.00,0.0556
2338.00,0.0555
2337.00,0.0554
2336.00,0.0554
2335.00,0.0553
2334.00,0.0552
2333.00,0.0551
2332.00,0.0549
2331.00,0.0548
2330.00,0.0547
2329.00,0.0548
2328.00,0.0550
2327.00,0.0551
2326.00,0.0552
2325.00,0.0551
2324.00,0.0549
2323.00,0.0545
2322.00,0.0541
2321.00,0.0538
2320.00,0.0536
2319.00,0.0534
2318.00,0.0533
2317.00,0.0531
2316.00,0.0530
2315.00,0.0528
2314.00,0.0525
2313.00,0.0523
2312.00,0.0520
2311.00,0.0518
2310.00,0.0515
2309.00,0.0513
2308.00,0.0512
2307.00,0.0511
2306.00,0.0510
2305.00,0.0509
2304.00,0.0508
2303.00,0.0506
2302.00,0.0505
2301.00,0.0503
2300.00,0.0503
2299.00,0.0502
2298.00,0.0502
2297.00,0.0502
2296.00,0.0502
2295.00,0.0501
2294.00,0.0501
2293.00,0.0501
2292.00,0.0501
2291.00,0.0501
2290.00,0.0500
2289.00,0.0500
2288.00,0.0499
2287.00,0.0499
2286.00,0.0497
2285.00,0.0496
2284.00,0.0494
2283.00,0.0493
2282.00,0.0491
2281.00,0.0489
2280.00,0.0486
2279.00,0.0483
2278.00,0.0481
2277.00,0.0478
2276.00,0.0477
2275.00,0.0476
2274.00,0.0476
2273.00,0.0475
2272.00,0.0475
2271.00,0.0475
2270.00,0.0475
2269.00,0.0474
2268.00,0.0474
2267.00,0.0473
2266.00,0.0473
2265.00,0.0474
2264.00,0.0475
2263.00,0.0476
2262.00,0.0476
2261.00,0.0477
2260.00,0.0478
2259.00,0.0480
2258.00,0.0481
2257.00,0.0482
2256.00,0.0484
2255.00,0.0485
2254.00,0.0486
2253.00,0.0487
2252.00,0.0489
2251.00,0.0490
2250.00,0.0491
2249.00,0.0491
2248.00,0.0492
2247.00,0.0491
2246.00,0.0490
2245.00,0.0489
2244.00,0.0488
2243.00,0.0487
2242.00,0.0485
2241.00,0.0483
2240.00,0.0482
2239.00,0.0480
2238.00,0.0477
2237.00,0.0474
2236.00,0.0470
2235.00,0.0466
2234.00,0.0463
2233.00,0.0461
2232.00,0.0460
2231.00,0.0459
2230.00,0.0458
2229.00,0.0457
2228.00,0.0456
2227.00,0.0454
2226.00,0.0451
2225.00,0.0449
2224.00,0.0446
2223.00,0.0444
2222.00,0.0441
2221.00,0.0439
2220.00,0.0438
2219.00,0.0437
2218.00,0.0436
2217.00,0.0434
2216.00,0.0433
2215.00,0.0431
2214.00,0.0429
2213.00,0.0429
2212.00,0.0429
2211.00,0.0428
2210.00,0.0425
2209.00,0.0421
2208.00,0.0419
2207.00,0.0417
2206.00,0.0415
2205.00,0.0414
2204.00,0.0414
2203.00,0.0413
2202.00,0.0411
2201.00,0.0410
2200.00,0.0409
2199.00,0.0410
2198.00,0.0411
2197.00,0.0412
2196.00,0.0413
2195.00,0.0413
2194.00,0.0413
2193.00,0.0414
2192.00,0.0415
2191.00,0.0415
2190.00,0.0415
2189.00,0.0415
2188.00,0.0415
2187.00,0.0414
2186.00,0.0412
2185.00,0.0410
2184.00,0.0408
2183.00,0.0406
2182.00,0.0404
2181.00,0.0403
2180.00,0.0404
2179.00,0.0405
2178.00,0.0403
2177.00,0.0401
2176.00,0.0399
2175.00,0.0397
2174.00,0.0396
2173.00,0.0397
2172.00,0.0398
2171.00,0.0398
2170.00,0.0397
2169.00,0.0395
2168.00,0.0393
2167.00,0.0391
2166.00,0.0388
2165.00,0.0388
2164.00,0.0388
2163.00,0.0386
2162.00,0.0380
2161.00,0.0369
2160.00,0.0357
2159.00,0.0346
2158.00,0.0340
2157.00,0.0338
2156.00,0.0339
2155.00,0.0341
2154.00,0.0342
2153.00,0.0343
2152.00,0.0346
2151.00,0.0346
2150.00,0.0346
2149.00,0.0345
2148.00,0.0345
2147.00,0.0345
2146.00,0.0345
2145.00,0.0345
2144.00,0.0346
2143.00,0.0346
2142.00,0.0345
2141.00,0.0343
2140.00,0.0342
2139.00,0.0341
2138.00,0.0338
2137.00,0.0335
2136.00,0.0333
2135.00,0.0332
2134.00,0.0331
2133.00,0.0332
2132.00,0.0333
2131.00,0.0334
2130.00,0.0334
2129.00,0.0335
2128.00,0.0335
2127.00,0.0335
2126.00,0.0335
2125.00,0.0336
2124.00,0.0338
2123.00,0.0338
2122.00,0.0337
2121.00,0.0337
2120.00,0.0337
2119.00,0.0337
2118.00,0.0337
2117.00,0.0338
2116.00,0.0337
2115.00,0.0336
2114.00,0.0334
2113.00,0.0333
2112.00,0.0334
2111.00,0.0334
2110.00,0.0334
2109.00,0.0333
2108.00,0.0333
2107.00,0.0332
2106.00,0.0330
2105.00,0.0329
2104.00,0.0328
2103.00,0.0327
2102.00,0.0327
2101.00,0.0326
2100.00,0.0326
2099.00,0.0325
2098.00,0.0324
2097.00,0.0323
2096.00,0.0322
2095.00,0.0322
2094.00,0.0321
2093.00,0.0322
2092.00,0.0323
2091.00,0.0324
2090.00,0.0324
2089.00,0.0325
2088.00,0.0326
2087.00,0.0327
2086.00,0.0327
2085.00,0.0326
2084.00,0.0326
2083.00,0.0325
2082.00,0.0324
2081.00,0.0324
2080.00,0.0324
2079.00,0.0323
2078.00,0.0320
2077.00,0.0318
2076.00,0.0317
2075.00,0.0317
2074.00,0.0316
2073.00,0.0316
2072.00,0.0315
2071.00,0.0314
2070.00,0.0311
2069.00,0.0309
2068.00,0.0308
2067.00,0.0306
2066.00,0.0304
2065.00,0.0302
2064.00,0.0301
2063.00,0.0301
2062.00,0.0299
2061.00,0.0299
2060.00,0.0298
2059.00,0.0297
2058.00,0.0295
2057.00,0.0294
2056.00,0.0293
2055.00,0.0294
2054.00,0.0295
2053.00,0.0298
2052.00,0.0299
2051.00,0.0298
2050.00,0.0293
2049.00,0.0288
2048.00,0.0284
2047.00,0.0281
2046.00,0.0278
2045.00,0.0276
2044.00,0.0277
2043.00,0.0277
2042.00,0.0277
2041.00,0.0277
2040.00,0.0277
2039.00,0.0277
2038.00,0.0275
2037.00,0.0273
2036.00,0.0271
2035.00,0.0267
2034.00,0.0262
2033.00,0.0259
2032.00,0.0257
2031.00,0.0255
2030.00,0.0253
2029.00,0.0251
2028.00,0.0249
2027.00,0.0245
2026.00,0.0239
2025.00,0.0236
2024.00,0.0235
2023.00,0.0236
2022.00,0.0236
2021.00,0.0237
2020.00,0.0238
2019.00,0.0238
2018.00,0.0236
2017.00,0.0234
2016.00,0.0235
2015.00,0.0236
2014.00,0.0236
2013.00,0.0236
2012.00,0.0238
2011.00,0.0241
2010.00,0.0242
2009.00,0.0241
2008.00,0.0240
2007.00,0.0237
2006.00,0.0235
2005.00,0.0238
2004.00,0.0243
2003.00,0.0246
2002.00,0.0248
2001.00,0.0250
2000.00,0.0253
1999.00,0.0255
1998.00,0.0255
1997.00,0.0256
1996.00,0.0257
1995.00,0.0259
1994.00,0.0260
1993.00,0.0263
1992.00,0.0267
1991.00,0.0269
1990.00,0.0269
1989.00,0.0270
1988.00,0.0271
1987.00,0.0273
1986.00,0.0273
1985.00,0.0274
1984.00,0.0276
1983.00,0.0278
1982.00,0.0278
1981.00,0.0278
1980.00,0.0277
1979.00,0.0272
1978.00,0.0265
1977.00,0.0261
1976.00,0.0260
1975.00,0.0259
1974.00,0.0257
1973.00,0.0256
1972.00,0.0256
1971.00,0.0256
1970.00,0.0254
1969.00,0.0254
1968.00,0.0255
1967.00,0.0256
1966.00,0.0255
1965.00,0.0256
1964.00,0.0257
1963.00,0.0257
1962.00,0.0254
1961.00,0.0253
1960.00,0.0254
1959.00,0.0254
1958.00,0.0253
1957.00,0.0254
1956.00,0.0256
1955.00,0.0258
1954.00,0.0259
1953.00,0.0261
1952.00,0.0262
1951.00,0.0262
1950.00,0.0261
1949.00,0.0261
1948.00,0.0263
1947.00,0.0264
1946.00,0.0266
1945.00,0.0268
1944.00,0.0271
1943.00,0.0273
1942.00,0.0274
1941.00,0.0275
1940.00,0.0276
1939.00,0.0277
1938.00,0.0277
1937.00,0.0277
1936.00,0.0279
1935.00,0.0280
1934.00,0.0281
1933.00,0.0284
1932.00,0.0287
1931.00,0.0289
1930.00,0.0290
1929.00,0.0291
1928.00,0.0294
1927.00,0.0296
1926.00,0.0299
1925.00,0.0301
1924.00,0.0305
1923.00,0.0308
1922.00,0.0310
1921.00,0.0312
1920.00,0.0314
1919.00,0.0314
1918.00,0.0313
1917.00,0.0312
1916.00,0.0310
1915.00,0.0308
1914.00,0.0306
1913.00,0.0306
1912.00,0.0305
1911.00,0.0304
1910.00,0.0301
1909.00,0.0299
1908.00,0.0298
1907.00,0.0297
1906.00,0.0297
1905.00,0.0296
1904.00,0.0297
1903.00,0.0297
1902.00,0.0297
1901.00,0.0297
1900.00,0.0297
1899.00,0.0297
1898.00,0.0297
1897.00,0.0297
1896.00,0.0300
1895.00,0.0302
1894.00,0.0304
1893.00,0.0307
1892.00,0.0310
1891.00,0.0312
1890.00,0.0314
1889.00,0.0317
1888.00,0.0319
1887.00,0.0321
1886.00,0.0321
1885.00,0.0321
1884.00,0.0321
1883.00,0.0320
1882.00,0.0318
1881.00,0.0316
1880.00,0.0314
1879.00,0.0311
1878.00,0.0308
1877.00,0.0304
1876.00,0.0300
1875.00,0.0296
1874.00,0.0292
1873.00,0.0290
1872.00,0.0289
1871.00,0.0288
1870.00,0.0287
1869.00,0.0286
1868.00,0.0284
1867.00,0.0281
1866.00,0.0277
1865.00,0.0274
1864.00,0.0273
1863.00,0.0271
1862.00,0.0270
1861.00,0.0269
1860.00,0.0269
1859.00,0.0269
1858.00,0.0268
1857.00,0.0268
1856.00,0.0268
1855.00,0.0268
1854.00,0.0268
1853.00,0.0268
1852.00,0.0269
1851.00,0.0269
1850.00,0.0269
1849.00,0.0269
1848.00,0.0271
1847.00,0.0272
1846.00,0.0273
1845.00,0.0275
1844.00,0.0276
1843.00,0.0276
1842.00,0.0274
1841.00,0.0273
1840.00,0.0273
1839.00,0.0273
1838.00,0.0272
1837.00,0.0271
1836.00,0.0271
1835.00,0.0271
1834.00,0.0271
1833.00,0.0272
1832.00,0.0274
1831.00,0.0275
1830.00,0.0276
1829.00,0.0276
1828.00,0.0275
1827.00,0.0275
1826.00,0.0274
1825.00,0.0273
1824.00,0.0272
1823.00,0.0271
1822.00,0.0269
1821.00,0.0268
1820.00,0.0268
1819.00,0.0268
1818.00,0.0267
1817.00,0.0267
1816.00,0.0268
1815.00,0.0269
1814.00,0.0270
1813.00,0.0271
1812.00,0.0273
1811.00,0.0274
1810.00,0.0274
1809.00,0.0274
1808.00,0.0274
1807.00,0.0275
1806.00,0.0274
1805.00,0.0275
1804.00,0.0276
1803.00,0.0277
1802.00,0.0277
1801.00,0.0278
1800.00,0.0279
1799.00,0.0278
1798.00,0.0276
1797.00,0.0275
1796.00,0.0276
1795.00,0.0277
1794.00,0.0279
1793.00,0.0280
1792.00,0.0280
1791.00,0.0278
1790.00,0.0275
1789.00,0.0273
1788.00,0.0272
1787.00,0.0272
1786.00,0.0271
1785.00,0.0270
1784.00,0.0270
1783.00,0.0270
1782.00,0.0269
1781.00,0.0268
1780.00,0.0268
1779.00,0.0267
1778.00,0.0265
1777.00,0.0265
1776.00,0.0265
1775.00,0.0266
1774.00,0.0267
1773.00,0.0269
1772.00,0.0272
1771.00,0.0272
1770.00,0.0270
1769.00,0.0268
1768.00,0.0267
1767.00,0.0266
1766.00,0.0266
1765.00,0.0266
1764.00,0.0268
1763.00,0.0271
1762.00,0.0272
1761.00,0.0273
1760.00,0.0274
1759.00,0.0275
1758.00,0.0276
1757.00,0.0278
1756.00,0.0280
1755.00,0.0282
1754.00,0.0282
1753.00,0.0284
1752.00,0.0290
1751.00,0.0297
1750.00,0.0303
1749.00,0.0309
1748.00,0.0314
1747.00,0.0318
1746.00,0.0321
1745.00,0.0326
1744.00,0.0332
1743.00,0.0339
1742.00,0.0344
1741.00,0.0351
1740.00,0.0358
1739.00,0.0364
1738.00,0.0368
1737.00,0.0373
1736.00,0.0383
1735.00,0.0396
1734.00,0.0412
1733.00,0.0431
1732.00,0.0452
1731.00,0.0474
1730.00,0.0496
1729.00,0.0523
1728.00,0.0553
1727.00,0.0585
1726.00,0.0618
1725.00,0.0655
1724.00,0.0697
1723.00,0.0741
1722.00,0.0783
1721.00,0.0825
1720.00,0.0869
1719.00,0.0918
1718.00,0.0974
1717.00,0.1035
1716.00,0.1096
1715.00,0.1150
1714.00,0.1197
1713.00,0.1242
1712.00,0.1285
1711.00,0.1326
1710.00,0.1366
1709.00,0.1406
1708.00,0.1447
1707.00,0.1490
1706.00,0.1536
1705.00,0.1583
1704.00,0.1628
1703.00,0.1669
1702.00,0.1719
1701.00,0.1791
1700.00,0.1874
1699.00,0.1940
1698.00,0.1988
1697.00,0.2041
1696.00,0.2116
1695.00,0.2200
1694.00,0.2269
1693.00,0.2323
1692.00,0.2375
1691.00,0.2432
1690.00,0.2494
1689.00,0.2553
1688.00,0.2604
1687.00,0.2649
1686.00,0.2703
1685.00,0.2778
1684.00,0.2868
1683.00,0.2941
1682.00,0.2986
1681.00,0.3019
1680.00,0.3054
1679.00,0.3091
1678.00,0.3126
1677.00,0.3162
1676.00,0.3207
1675.00,0.3254
1674.00,0.3292
1673.00,0.3317
1672.00,0.3339
1671.00,0.3369
1670.00,0.3406
1669.00,0.3443
1668.00,0.3472
1667.00,0.3492
1666.00,0.3505
1665.00,0.3519
1664.00,0.3539
1663.00,0.3562
1662.00,0.3578
1661.00,0.3584
1660.00,0.3580
1659.00,0.3571
1658.00,0.3558
1657.00,0.3537
1656.00,0.3511
1655.00,0.3487
1654.00,0.3468
1653.00,0.3449
1652.00,0.3422
1651.00,0.3390
1650.00,0.3355
1649.00,0.3318
1648.00,0.3285
1647.00,0.3256
1646.00,0.3228
1645.00,0.3197
1644.00,0.3166
1643.00,0.3135
1642.00,0.3105
1641.00,0.3075
1640.00,0.3047
1639.00,0.3019
1638.00,0.2992
1637.00,0.2967
1636.00,0.2943
1635.00,0.2916
1634.00,0.2882
1633.00,0.2844
1632.00,0.2805
1631.00,0.2768
1630.00,0.2733
1629.00,0.2697
1628.00,0.2659
1627.00,0.2622
1626.00,0.2585
1625.00,0.2549
1624.00,0.2512
1623.00,0.2474
1622.00,0.2436
1621.00,0.2398
1620.00,0.2359
1619.00,0.2323
1618.00,0.2290
1617.00,0.2258
1616.00,0.2229
1615.00,0.2200
1614.00,0.2171
1613.00,0.2139
1612.00,0.2109
1611.00,0.2080
1610.00,0.2054
1609.00,0.2027
1608.00,0.2001
1607.00,0.1976
1606.00,0.1952
1605.00,0.1928
1604.00,0.1905
1603.00,0.1884
1602.00,0.1864
1601.00,0.1843
1600.00,0.1823
1599.00,0.1803
1598.00,0.1784
1597.00,0.1765
1596.00,0.1747
1595.00,0.1730
1594.00,0.1714
1593.00,0.1698
1592.00,0.1682
1591.00,0.1669
1590.00,0.1656
1589.00,0.1645
1588.00,0.1636
1587.00,0.1627
1586.00,0.1619
1585.00,0.1609
1584.00,0.1598
1583.00,0.1585
1582.00,0.1571
1581.00,0.1555
1580.00,0.1536
1579.00,0.1516
1578.00,0.1495
1577.00,0.1476
1576.00,0.1462
1575.00,0.1449
1574.00,0.1433
1573.00,0.1415
1572.00,0.1396
1571.00,0.1380
1570.00,0.1364
1569.00,0.1346
1568.00,0.1326
1567.00,0.1306
1566.00,0.1288
1565.00,0.1271
1564.00,0.1253
1563.00,0.1236
1562.00,0.1221
1561.00,0.1211
1560.00,0.1205
1559.00,0.1198
1558.00,0.1186
1557.00,0.1164
1556.00,0.1139
1555.00,0.1116
1554.00,0.1095
1553.00,0.1077
1552.00,0.1059
1551.00,0.1043
1550.00,0.1028
1549.00,0.1013
1548.00,0.0998
1547.00,0.0985
1546.00,0.0974
1545.00,0.0964
1544.00,0.0954
1543.00,0.0946
1542.00,0.0937
1541.00,0.0927
1540.00,0.0917
1539.00,0.0908
1538.00,0.0900
1537.00,0.0892
1536.00,0.0885
1535.00,0.0880
1534.00,0.0877
1533.00,0.0873
1532.00,0.0866
1531.00,0.0858
1530.00,0.0851
1529.00,0.0845
1528.00,0.0839
1527.00,0.0833
1526.00,0.0828
1525.00,0.0822
1524.00,0.0813
1523.00,0.0803
1522.00,0.0795
1521.00,0.0788
1520.00,0.0782
1519.00,0.0775
1518.00,0.0767
1517.00,0.0758
1516.00,0.0749
1515.00,0.0740
1514.00,0.0731
1513.00,0.0724
1512.00,0.0717
1511.00,0.0712
1510.00,0.0705
1509.00,0.0698
1508.00,0.0693
1507.00,0.0690
1506.00,0.0684
1505.00,0.0671
1504.00,0.0659
1503.00,0.0647
1502.00,0.0637
1501.00,0.0629
1500.00,0.0622
1499.00,0.0614
1498.00,0.0604
1497.00,0.0592
1496.00,0.0579
1495.00,0.0568
1494.00,0.0557
1493.00,0.0547
1492.00,0.0536
1491.00,0.0526
1490.00,0.0515
1489.00,0.0502
1488.00,0.0488
1487.00,0.0473
1486.00,0.0459
1485.00,0.0445
1484.00,0.0433
1483.00,0.0422
1482.00,0.0412
1481.00,0.0403
1480.00,0.0395
1479.00,0.0388
1478.00,0.0382
1477.00,0.0376
1476.00,0.0370
1475.00,0.0364
1474.00,0.0358
1473.00,0.0353
1472.00,0.0346
1471.00,0.0338
1470.00,0.0331
1469.00,0.0325
1468.00,0.0321
1467.00,0.0320
1466.00,0.0319
1465.00,0.0316
1464.00,0.0313
1463.00,0.0309
1462.00,0.0307
1461.00,0.0307
1460.00,0.0309
1459.00,0.0312
1458.00,0.0318
1457.00,0.0326
1456.00,0.0335
1455.00,0.0345
1454.00,0.0354
1453.00,0.0364
1452.00,0.0376
1451.00,0.0392
1450.00,0.0413
1449.00,0.0440
1448.00,0.0475
1447.00,0.0516
1446.00,0.0558
1445.00,0.0605
1444.00,0.0656
1443.00,0.0714
1442.00,0.0778
1441.00,0.0848
1440.00,0.0924
1439.00,0.1009
1438.00,0.1111
1437.00,0.1238
1436.00,0.1377
1435.00,0.1507
1434.00,0.1626
1433.00,0.1745
1432.00,0.1870
1431.00,0.1997
1430.00,0.2120
1429.00,0.2234
1428.00,0.2333
1427.00,0.2413
1426.00,0.2476
1425.00,0.2529
1424.00,0.2568
1423.00,0.2585
1422.00,0.2584
1421.00,0.2574
1420.00,0.2556
1419.00,0.2527
1418.00,0.2492
1417.00,0.2460
1416.00,0.2430
1415.00,0.2402
1414.00,0.2379
1413.00,0.2363
1412.00,0.2349
1411.00,0.2332
1410.00,0.2311
1409.00,0.2286
1408.00,0.2256
1407.00,0.2218
1406.00,0.2175
1405.00,0.2128
1404.00,0.2079
1403.00,0.2027
1402.00,0.1976
1401.00,0.1928
1400.00,0.1880
1399.00,0.1831
1398.00,0.1784
1397.00,0.1740
1396.00,0.1698
1395.00,0.1656
1394.00,0.1615
1393.00,0.1576
1392.00,0.1539
1391.00,0.1505
1390.00,0.1472
1389.00,0.1442
1388.00,0.1413
1387.00,0.1383
1386.00,0.1355
1385.00,0.1328
1384.00,0.1302
1383.00,0.1275
1382.00,0.1249
1381.00,0.1224
1380.00,0.1198
1379.00,0.1172
1378.00,0.1147
1377.00,0.1123
1376.00,0.1099
1375.00,0.1075
1374.00,0.1050
1373.00,0.1025
1372.00,0.1001
1371.00,0.0977
1370.00,0.0955
1369.00,0.0934
1368.00,0.0914
1367.00,0.0894
1366.00,0.0875
1365.00,0.0857
1364.00,0.0839
1363.00,0.0821
1362.00,0.0803
1361.00,0.0786
1360.00,0.0769
1359.00,0.0753
1358.00,0.0738
1357.00,0.0725
1356.00,0.0712
1355.00,0.0699
1354.00,0.0688
1353.00,0.0678
1352.00,0.0667
1351.00,0.0657
1350.00,0.0647
1349.00,0.0637
1348.00,0.0628
1347.00,0.0618
1346.00,0.0609
1345.00,0.0601
1344.00,0.0592
1343.00,0.0583
1342.00,0.0575
1341.00,0.0568
1340.00,0.0561
1339.00,0.0556
1338.00,0.0553
1337.00,0.0552
1336.00,0.0554
1335.00,0.0558
1334.00,0.0567
1333.00,0.0582
1332.00,0.0604
1331.00,0.0634
1330.00,0.0675
1329.00,0.0726
1328.00,0.0788
1327.00,0.0861
1326.00,0.0943
1325.00,0.1031
1324.00,0.1119
1323.00,0.1199
1322.00,0.1267
1321.00,0.1315
1320.00,0.1341
1319.00,0.1344
1318.00,0.1328
1317.00,0.1299
1316.00,0.1260
1315.00,0.1218
1314.00,0.1174
1313.00,0.1130
1312.00,0.1087
1311.00,0.1043
1310.00,0.1000
1309.00,0.0958
1308.00,0.0915
1307.00,0.0873
1306.00,0.0833
1305.00,0.0797
1304.00,0.0766
1303.00,0.0742
1302.00,0.0728
1301.00,0.0723
1300.00,0.0730
1299.00,0.0747
1298.00,0.0773
1297.00,0.0806
1296.00,0.0846
1295.00,0.0891
1294.00,0.0940
1293.00,0.0996
1292.00,0.1058
1291.00,0.1130
1290.00,0.1214
1289.00,0.1312
1288.00,0.1424
1287.00,0.1551
1286.00,0.1693
1285.00,0.1847
1284.00,0.2011
1283.00,0.2182
1282.00,0.2358
1281.00,0.2538
1280.00,0.2721
1279.00,0.2906
1278.00,0.3092
1277.00,0.3275
1276.00,0.3449
1275.00,0.3601
1274.00,0.3723
1273.00,0.3805
1272.00,0.3842
1271.00,0.3833
1270.00,0.3783
1269.00,0.3700
1268.00,0.3591
1267.00,0.3463
1266.00,0.3322
1265.00,0.3175
1264.00,0.3025
1263.00,0.2873
1262.00,0.2720
1261.00,0.2568
1260.00,0.2419
1259.00,0.2271
1258.00,0.2127
1257.00,0.1988
1256.00,0.1855
1255.00,0.1729
1254.00,0.1611
1253.00,0.1504
1252.00,0.1410
1251.00,0.1331
1250.00,0.1270
1249.00,0.1225
1248.00,0.1197
1247.00,0.1185
1246.00,0.1191
1245.00,0.1215
1244.00,0.1261
1243.00,0.1332
1242.00,0.1428
1241.00,0.1549
1240.00,0.1693
1239.00,0.1855
1238.00,0.2030
1237.00,0.2213
1236.00,0.2395
1235.00,0.2568
1234.00,0.2726
1233.00,0.2865
1232.00,0.2980
1231.00,0.3068
1230.00,0.3128
1229.00,0.3163
1228.00,0.3174
1227.00,0.3162
1226.00,0.3132
1225.00,0.3088
1224.00,0.3031
1223.00,0.2967
1222.00,0.2900
1221.00,0.2838
1220.00,0.2789
1219.00,0.2762
1218.00,0.2762
1217.00,0.2789
1216.00,0.2836
1215.00,0.2890
1214.00,0.2938
1213.00,0.2971
1212.00,0.2985
1211.00,0.2976
1210.00,0.2949
1209.00,0.2908
1208.00,0.2856
1207.00,0.2797
1206.00,0.2735
1205.00,0.2673
1204.00,0.2613
1203.00,0.2555
1202.00,0.2501
1201.00,0.2450
1200.00,0.2403
1199.00,0.2362
1198.00,0.2326
1197.00,0.2297
1196.00,0.2274
1195.00,0.2255
1194.00,0.2240
1193.00,0.2225
1192.00,0.2208
1191.00,0.2187
1190.00,0.2163
1189.00,0.2137
1188.00,0.2109
1187.00,0.2079
1186.00,0.2049
1185.00,0.2019
1184.00,0.1990
1183.00,0.1962
1182.00,0.1935
1181.00,0.1910
1180.00,0.1885
1179.00,0.1861
1178.00,0.1837
1177.00,0.1814
1176.00,0.1792
1175.00,0.1771
1174.00,0.1752
1173.00,0.1734
1172.00,0.1717
1171.00,0.1701
1170.00,0.1686
1169.00,0.1671
1168.00,0.1656
1167.00,0.1640
1166.00,0.1625
1165.00,0.1611
1164.00,0.1597
1163.00,0.1583
1162.00,0.1569
1161.00,0.1555
1160.00,0.1541
1159.00,0.1527
1158.00,0.1514
1157.00,0.1500
1156.00,0.1486
1155.00,0.1473
1154.00,0.1459
1153.00,0.1446
1152.00,0.1433
1151.00,0.1419
1150.00,0.1406
1149.00,0.1393
1148.00,0.1381
1147.00,0.1369
1146.00,0.1357
1145.00,0.1346
1144.00,0.1334
1143.00,0.1324
1142.00,0.1314
1141.00,0.1304
1140.00,0.1294
1139.00,0.1285
1138.00,0.1276
1137.00,0.1268
1136.00,0.1260
1135.00,0.1253
1134.00,0.1246
1133.00,0.1240
1132.00,0.1236
1131.00,0.1232
1130.00,0.1229
1129.00,0.1225
1128.00,0.1221
1127.00,0.1215
1126.00,0.1209
1125.00,0.1203
1124.00,0.1196
1123.00,0.1190
1122.00,0.1184
1121.00,0.1178
1120.00,0.1173
1119.00,0.1166
1118.00,0.1160
1117.00,0.1155
1116.00,0.1149
1115.00,0.1143
1114.00,0.1138
1113.00,0.1133
1112.00,0.1127
1111.00,0.1121
1110.00,0.1116
1109.00,0.1111
1108.00,0.1106
1107.00,0.1101
1106.00,0.1097
1105.00,0.1092
1104.00,0.1088
1103.00,0.1084
1102.00,0.1081
1101.00,0.1078
1100.00,0.1074
1099.00,0.1069
1098.00,0.1065
1097.00,0.1061
1096.00,0.1057
1095.00,0.1053
1094.00,0.1050
1093.00,0.1046
1092.00,0.1042
1091.00,0.1038
1090.00,0.1033
1089.00,0.1029
1088.00,0.1024
1087.00,0.1020
1086.00,0.1016
1085.00,0.1012
1084.00,0.1008
1083.00,0.1003
1082.00,0.0998
1081.00,0.0994
1080.00,0.0990
1079.00,0.0986
1078.00,0.0984
1077.00,0.0983
1076.00,0.0982
1075.00,0.0981
1074.00,0.0980
1073.00,0.0979
1072.00,0.0976
1071.00,0.0971
1070.00,0.0967
1069.00,0.0963
1068.00,0.0959
1067.00,0.0955
1066.00,0.0952
1065.00,0.0950
1064.00,0.0947
1063.00,0.0945
1062.00,0.0943
1061.00,0.0941
1060.00,0.0939
1059.00,0.0937
1058.00,0.0935
1057.00,0.0934
1056.00,0.0932
1055.00,0.0929
1054.00,0.0927
1053.00,0.0924
1052.00,0.0921
1051.00,0.0919
1050.00,0.0918
1049.00,0.0916
1048.00,0.0914
1047.00,0.0912
1046.00,0.0909
1045.00,0.0908
1044.00,0.0906
1043.00,0.0904
1042.00,0.0902
1041.00,0.0900
1040.00,0.0898
1039.00,0.0896
1038.00,0.0894
1037.00,0.0892
1036.00,0.0889
1035.00,0.0886
1034.00,0.0884
1033.00,0.0883
1032.00,0.0883
1031.00,0.0884
1030.00,0.0887
1029.00,0.0893
1028.00,0.0900
1027.00,0.0906
1026.00,0.0912
1025.00,0.0919
1024.00,0.0928
1023.00,0.0941
1022.00,0.0961
1021.00,0.0988
1020.00,0.1029
1019.00,0.1089
1018.00,0.1175
1017.00,0.1292
1016.00,0.1437
1015.00,0.1601
1014.00,0.1770
1013.00,0.1930
1012.00,0.2069
1011.00,0.2180
1010.00,0.2258
1009.00,0.2298
1008.00,0.2298
1007.00,0.2263
1006.00,0.2208
1005.00,0.2156
1004.00,0.2124
1003.00,0.2124
1002.00,0.2151
1001.00,0.2186
1000.00,0.2205
999.00,0.2193
998.00,0.2143
997.00,0.2063
996.00,0.1962
995.00,0.1851
994.00,0.1739
993.00,0.1635
992.00,0.1544
991.00,0.1465
990.00,0.1399
989.00,0.1345
988.00,0.1301
987.00,0.1265
986.00,0.1236
985.00,0.1212
984.00,0.1192
983.00,0.1176
982.00,0.1163
981.00,0.1153
980.00,0.1145
979.00,0.1139
978.00,0.1135
977.00,0.1134
976.00,0.1135
975.00,0.1140
974.00,0.1149
973.00,0.1162
972.00,0.1177
971.00,0.1193
970.00,0.1207
969.00,0.1218
968.00,0.1227
967.00,0.1234
966.00,0.1243
965.00,0.1253
964.00,0.1265
963.00,0.1279
962.00,0.1295
961.00,0.1313
960.00,0.1332
959.00,0.1352
958.00,0.1373
957.00,0.1394
956.00,0.1415
955.00,0.1435
954.00,0.1452
953.00,0.1464
952.00,0.1472
951.00,0.1476
950.00,0.1478
949.00,0.1481
948.00,0.1484
947.00,0.1490
946.00,0.1498
945.00,0.1509
944.00,0.1524
943.00,0.1543
942.00,0.1568
941.00,0.1601
940.00,0.1643
939.00,0.1695
938.00,0.1755
937.00,0.1824
936.00,0.1898
935.00,0.1974
934.00,0.2048
933.00,0.2117
932.00,0.2179
931.00,0.2230
930.00,0.2271
929.00,0.2304
928.00,0.2332
927.00,0.2355
926.00,0.2378
925.00,0.2400
924.00,0.2424
923.00,0.2449
922.00,0.2474
921.00,0.2501
920.00,0.2529
919.00,0.2557
918.00,0.2583
917.00,0.2605
916.00,0.2618
915.00,0.2620
914.00,0.2615
913.00,0.2612
912.00,0.2619
911.00,0.2640
910.00,0.2676
909.00,0.2725
908.00,0.2780
907.00,0.2838
906.00,0.2896
905.00,0.2952
904.00,0.3006
903.00,0.3056
902.00,0.3103
901.00,0.3147
900.00,0.3187
899.00,0.3221
898.00,0.3251
897.00,0.3278
896.00,0.3300
895.00,0.3318
894.00,0.3330
893.00,0.3339
892.00,0.3343
891.00,0.3343
890.00,0.3339
889.00,0.3332
888.00,0.3322
887.00,0.3308
886.00,0.3291
885.00,0.3271
884.00,0.3250
883.00,0.3227
882.00,0.3203
881.00,0.3178
880.00,0.3153
879.00,0.3127
878.00,0.3100
877.00,0.3074
876.00,0.3049
875.00,0.3023
874.00,0.2997
873.00,0.2972
872.00,0.2947
871.00,0.2923
870.00,0.2900
869.00,0.2878
868.00,0.2858
867.00,0.2839
866.00,0.2823
865.00,0.2810
864.00,0.2798
863.00,0.2787
862.00,0.2774
861.00,0.2761
860.00,0.2747
859.00,0.2733
858.00,0.2720
857.00,0.2706
856.00,0.2692
855.00,0.2677
854.00,0.2661
853.00,0.2643
852.00,0.2624
851.00,0.2603
850.00,0.2580
849.00,0.2556
848.00,0.2531
847.00,0.2506
846.00,0.2481
845.00,0.2455
844.00,0.2429
843.00,0.2402
842.00,0.2374
841.00,0.2348
840.00,0.2321
839.00,0.2296
838.00,0.2270
837.00,0.2245
836.00,0.2221
835.00,0.2196
834.00,0.2172
833.00,0.2150
832.00,0.2127
831.00,0.2105
830.00,0.2082
829.00,0.2059
828.00,0.2036
827.00,0.2014
826.00,0.1992
825.00,0.1971
824.00,0.1951
823.00,0.1930
822.00,0.1910
821.00,0.1890
820.00,0.1872
819.00,0.1853
818.00,0.1836
817.00,0.1818
816.00,0.1801
815.00,0.1785
814.00,0.1770
813.00,0.1758
812.00,0.1746
811.00,0.1733
810.00,0.1719
809.00,0.1704
808.00,0.1688
807.00,0.1673
806.00,0.1659
805.00,0.1645
804.00,0.1631
803.00,0.1616
802.00,0.1602
801.00,0.1588
800.00,0.1574
799.00,0.1561
798.00,0.1549
797.00,0.1539
796.00,0.1530
795.00,0.1521
794.00,0.1513
793.00,0.1506
792.00,0.1501
791.00,0.1497
790.00,0.1497
789.00,0.1500
788.00,0.1508
787.00,0.1522
786.00,0.1543
785.00,0.1574
784.00,0.1617
783.00,0.1668
782.00,0.1721
781.00,0.1757
780.00,0.1758
779.00,0.1712
778.00,0.1625
777.00,0.1515
776.00,0.1407
775.00,0.1315
774.00,0.1246
773.00,0.1198
772.00,0.1166
771.00,0.1144
770.00,0.1127
769.00,0.1113
768.00,0.1099
767.00,0.1085
766.00,0.1071
765.00,0.1059
764.00,0.1048
763.00,0.1038
762.00,0.1030
761.00,0.1022
760.00,0.1014
759.00,0.1005
758.00,0.0997
757.00,0.0989
756.00,0.0980
755.00,0.0972
754.00,0.0963
753.00,0.0955
752.00,0.0948
751.00,0.0940
750.00,0.0932
749.00,0.0924
748.00,0.0915
747.00,0.0906
746.00,0.0898
745.00,0.0890
744.00,0.0882
743.00,0.0875
742.00,0.0868
741.00,0.0861
740.00,0.0854
739.00,0.0847
738.00,0.0841
737.00,0.0836
736.00,0.0831
735.00,0.0827
734.00,0.0825
733.00,0.0825
732.00,0.0827
731.00,0.0831
730.00,0.0838
729.00,0.0848
728.00,0.0862
727.00,0.0879
726.00,0.0899
725.00,0.0921
724.00,0.0944
723.00,0.0962
722.00,0.0973
721.00,0.0976
720.00,0.0969
719.00,0.0957
718.00,0.0941
717.00,0.0925
716.00,0.0909
715.00,0.0896
714.00,0.0884
713.00,0.0873
712.00,0.0862
711.00,0.0852
710.00,0.0842
709.00,0.0832
708.00,0.0821
707.00,0.0808
706.00,0.0792
705.00,0.0775
704.00,0.0756
703.00,0.0737
702.00,0.0718
701.00,0.0701
700.00,0.0684
699.00,0.0669
698.00,0.0656
697.00,0.0644
696.00,0.0632
695.00,0.0620
694.00,0.0608
693.00,0.0595
692.00,0.0583
691.00,0.0571
690.00,0.0560
689.00,0.0551
688.00,0.0544
687.00,0.0540
686.00,0.0539
685.00,0.0537
684.00,0.0533
683.00,0.0524
682.00,0.0512
681.00,0.0499
680.00,0.0485
679.00,0.0473
678.00,0.0462
677.00,0.0452
676.00,0.0442
675.00,0.0433
674.00,0.0426
673.00,0.0422
672.00,0.0421
671.00,0.0423
670.00,0.0428
669.00,0.0435
668.00,0.0443
667.00,0.0448
666.00,0.0446
665.00,0.0439
664.00,0.0435
663.00,0.0435
662.00,0.0442
661.00,0.0455
660.00,0.0476
659.00,0.0507
658.00,0.0552
657.00,0.0618
656.00,0.0714
655.00,0.0854
654.00,0.1050
653.00,0.1310
652.00,0.1635
651.00,0.2015
650.00,0.2431
649.00,0.2865
648.00,0.3292
647.00,0.3673
646.00,0.3962
645.00,0.4136
644.00,0.4196
643.00,0.4150
642.00,0.4020
641.00,0.3843
640.00,0.3645
639.00,0.3438
638.00,0.3229
637.00,0.3026
636.00,0.2838
635.00,0.2662
634.00,0.2496
633.00,0.2343
632.00,0.2201
631.00,0.2067
630.00,0.1942
629.00,0.1829
628.00,0.1728
627.00,0.1637
626.00,0.1555
625.00,0.1480
624.00,0.1413
623.00,0.1352
622.00,0.1295
621.00,0.1243
620.00,0.1196
619.00,0.1153
618.00,0.1112
617.00,0.1075
616.00,0.1041
615.00,0.1009
614.00,0.0979
613.00,0.0952
612.00,0.0926
611.00,0.0903
610.00,0.0881
609.00,0.0861
608.00,0.0842
607.00,0.0825
606.00,0.0811
605.00,0.0799
604.00,0.0789
603.00,0.0782
602.00,0.0777
601.00,0.0776
600.00,0.0779
599.00,0.0785
598.00,0.0795
597.00,0.0809
596.00,0.0831
595.00,0.0862
594.00,0.0906
593.00,0.0966
592.00,0.1045
591.00,0.1145
590.00,0.1269
589.00,0.1420
588.00,0.1605
587.00,0.1825
586.00,0.2076
585.00,0.2352
584.00,0.2639
583.00,0.2921
582.00,0.3178
581.00,0.3395
580.00,0.3564
579.00,0.3673
578.00,0.3719
577.00,0.3716
576.00,0.3678
575.00,0.3610
574.00,0.3520
573.00,0.3419
572.00,0.3316
571.00,0.3212
570.00,0.3108
569.00,0.3006
568.00,0.2909
567.00,0.2813
566.00,0.2718
565.00,0.2630
564.00,0.2549
563.00,0.2474
562.00,0.2402
561.00,0.2335
560.00,0.2274
559.00,0.2214
558.00,0.2154
557.00,0.2096
556.00,0.2039
555.00,0.1983
554.00,0.1928
553.00,0.1878
552.00,0.1834
551.00,0.1794
550.00,0.1754
549.00,0.1715
548.00,0.1678
547.00,0.1644
546.00,0.1612
545.00,0.1579
544.00,0.1547
543.00,0.1516
542.00,0.1488
541.00,0.1464
540.00,0.1443
539.00,0.1422
538.00,0.1399
537.00,0.1374
536.00,0.1349
535.00,0.1325
534.00,0.1301
533.00,0.1279
532.00,0.1258
531.00,0.1240
530.00,0.1221
529.00,0.1204
528.00,0.1188
527.00,0.1170
526.00,0.1151
525.00,0.1131
524.00,0.1112
523.00,0.1096
522.00,0.1082
521.00,0.1070
520.00,0.1061
519.00,0.1050
518.00,0.1038
517.00,0.1025
516.00,0.1011
515.00,0.0997
514.00,0.0984
513.00,0.0972
512.00,0.0962
511.00,0.0953
510.00,0.0944
509.00,0.0937
508.00,0.0930
507.00,0.0924
506.00,0.0915
505.00,0.0903
504.00,0.0889
503.00,0.0877
502.00,0.0870
501.00,0.0866
500.00,0.0863
499.00,0.0856
498.00,0.0848
497.00,0.0840
496.00,0.0832
495.00,0.0825
494.00,0.0816
493.00,0.0807
492.00,0.0799
491.00,0.0795
490.00,0.0795
489.00,0.0794
488.00,0.0792
487.00,0.0785
486.00,0.0777
485.00,0.0772
484.00,0.0769
483.00,0.0770
482.00,0.0771
481.00,0.0772
480.00,0.0772
479.00,0.0774
478.00,0.0777
477.00,0.0784
476.00,0.0793
475.00,0.0803
474.00,0.0815
473.00,0.0830
472.00,0.0848
471.00,0.0868
470.00,0.0889
469.00,0.0911
468.00,0.0934
467.00,0.0958
466.00,0.0981
465.00,0.1004
464.00,0.1031
463.00,0.1061
462.00,0.1094
461.00,0.1127
460.00,0.1161
459.00,0.1197
458.00,0.1238
457.00,0.1282
456.00,0.1325
455.00,0.1361
454.00,0.1393
453.00,0.1424
452.00,0.1460
451.00,0.1500
450.00,0.1541
449.00,0.1580
448.00,0.1613
447.00,0.1635
446.00,0.1646
445.00,0.1650
444.00,0.1647
443.00,0.1633
442.00,0.1606
441.00,0.1571
440.00,0.1535
439.00,0.1501
438.00,0.1469
437.00,0.1437
436.00,0.1406
435.00,0.1373
434.00,0.1337
433.00,0.1300
432.00,0.1261
431.00,0.1224
430.00,0.1189
429.00,0.1159
428.00,0.1131
427.00,0.1106
426.00,0.1082
425.00,0.1062
424.00,0.1045
423.00,0.1028
422.00,0.1008
421.00,0.0986
420.00,0.0962
419.00,0.0940
418.00,0.0927
417.00,0.0926
416.00,0.0927
415.00,0.0920
414.00,0.0903
413.00,0.0883
412.00,0.0869
411.00,0.0857
410.00,0.0844
409.00,0.0830
408.00,0.0822
407.00,0.0827
406.00,0.0844
405.00,0.0860
404.00,0.0863
403.00,0.0846
402.00,0.0817
401.00,0.0790
400.00,0.0775
