Created as New Dataset,Sample 844 By YargerLab Date Saturday, April 18 2026
cm-1,A
4000.00,0.0121
3999.00,0.0121
3998.00,0.0121
3997.00,0.0121
3996.00,0.0121
3995.00,0.0120
3994.00,0.0120
3993.00,0.0120
3992.00,0.0120
3991.00,0.0120
3990.00,0.0120
3989.00,0.0120
3988.00,0.0120
3987.00,0.0120
3986.00,0.0120
3985.00,0.0120
3984.00,0.0120
3983.00,0.0120
3982.00,0.0120
3981.00,0.0120
3980.00,0.0120
3979.00,0.0120
3978.00,0.0120
3977.00,0.0120
3976.00,0.0120
3975.00,0.0120
3974.00,0.0120
3973.00,0.0120
3972.00,0.0120
3971.00,0.0120
3970.00,0.0120
3969.00,0.0120
3968.00,0.0120
3967.00,0.0120
3966.00,0.0120
3965.00,0.0120
3964.00,0.0119
3963.00,0.0119
3962.00,0.0119
3961.00,0.0119
3960.00,0.0120
3959.00,0.0120
3958.00,0.0120
3957.00,0.0120
3956.00,0.0120
3955.00,0.0120
3954.00,0.0120
3953.00,0.0120
3952.00,0.0120
3951.00,0.0120
3950.00,0.0119
3949.00,0.0119
3948.00,0.0119
3947.00,0.0119
3946.00,0.0119
3945.00,0.0119
3944.00,0.0119
3943.00,0.0119
3942.00,0.0119
3941.00,0.0119
3940.00,0.0119
3939.00,0.0119
3938.00,0.0119
3937.00,0.0119
3936.00,0.0119
3935.00,0.0120
3934.00,0.0120
3933.00,0.0120
3932.00,0.0120
3931.00,0.0120
3930.00,0.0120
3929.00,0.0119
3928.00,0.0119
3927.00,0.0119
3926.00,0.0119
3925.00,0.0119
3924.00,0.0119
3923.00,0.0119
3922.00,0.0119
3921.00,0.0118
3920.00,0.0118
3919.00,0.0118
3918.00,0.0118
3917.00,0.0118
3916.00,0.0118
3915.00,0.0118
3914.00,0.0118
3913.00,0.0118
3912.00,0.0118
3911.00,0.0118
3910.00,0.0118
3909.00,0.0118
3908.00,0.0117
3907.00,0.0117
3906.00,0.0117
3905.00,0.0117
3904.00,0.0117
3903.00,0.0117
3902.00,0.0117
3901.00,0.0117
3900.00,0.0117
3899.00,0.0117
3898.00,0.0117
3897.00,0.0117
3896.00,0.0117
3895.00,0.0117
3894.00,0.0117
3893.00,0.0117
3892.00,0.0117
3891.00,0.0117
3890.00,0.0117
3889.00,0.0117
3888.00,0.0117
3887.00,0.0117
3886.00,0.0117
3885.00,0.0117
3884.00,0.0118
3883.00,0.0118
3882.00,0.0117
3881.00,0.0117
3880.00,0.0117
3879.00,0.0117
3878.00,0.0117
3877.00,0.0117
3876.00,0.0117
3875.00,0.0117
3874.00,0.0117
3873.00,0.0117
3872.00,0.0117
3871.00,0.0117
3870.00,0.0117
3869.00,0.0118
3868.00,0.0118
3867.00,0.0118
3866.00,0.0117
3865.00,0.0117
3864.00,0.0117
3863.00,0.0117
3862.00,0.0117
3861.00,0.0117
3860.00,0.0117
3859.00,0.0117
3858.00,0.0116
3857.00,0.0116
3856.00,0.0117
3855.00,0.0117
3854.00,0.0117
3853.00,0.0117
3852.00,0.0117
3851.00,0.0117
3850.00,0.0117
3849.00,0.0117
3848.00,0.0117
3847.00,0.0117
3846.00,0.0117
3845.00,0.0117
3844.00,0.0117
3843.00,0.0118
3842.00,0.0118
3841.00,0.0118
3840.00,0.0118
3839.00,0.0118
3838.00,0.0118
3837.00,0.0117
3836.00,0.0117
3835.00,0.0117
3834.00,0.0117
3833.00,0.0117
3832.00,0.0117
3831.00,0.0117
3830.00,0.0117
3829.00,0.0117
3828.00,0.0117
3827.00,0.0117
3826.00,0.0116
3825.00,0.0116
3824.00,0.0116
3823.00,0.0116
3822.00,0.0116
3821.00,0.0116
3820.00,0.0115
3819.00,0.0115
3818.00,0.0115
3817.00,0.0114
3816.00,0.0114
3815.00,0.0114
3814.00,0.0114
3813.00,0.0114
3812.00,0.0114
3811.00,0.0114
3810.00,0.0114
3809.00,0.0114
3808.00,0.0114
3807.00,0.0114
3806.00,0.0115
3805.00,0.0114
3804.00,0.0114
3803.00,0.0114
3802.00,0.0114
3801.00,0.0114
3800.00,0.0114
3799.00,0.0113
3798.00,0.0113
3797.00,0.0113
3796.00,0.0113
3795.00,0.0113
3794.00,0.0113
3793.00,0.0113
3792.00,0.0113
3791.00,0.0113
3790.00,0.0114
3789.00,0.0114
3788.00,0.0114
3787.00,0.0113
3786.00,0.0113
3785.00,0.0113
3784.00,0.0113
3783.00,0.0113
3782.00,0.0113
3781.00,0.0113
3780.00,0.0113
3779.00,0.0113
3778.00,0.0113
3777.00,0.0113
3776.00,0.0113
3775.00,0.0113
3774.00,0.0113
3773.00,0.0113
3772.00,0.0113
3771.00,0.0113
3770.00,0.0113
3769.00,0.0113
3768.00,0.0113
3767.00,0.0113
3766.00,0.0113
3765.00,0.0113
3764.00,0.0113
3763.00,0.0113
3762.00,0.0113
3761.00,0.0113
3760.00,0.0113
3759.00,0.0113
3758.00,0.0113
3757.00,0.0113
3756.00,0.0113
3755.00,0.0113
3754.00,0.0112
3753.00,0.0112
3752.00,0.0111
3751.00,0.0111
3750.00,0.0111
3749.00,0.0110
3748.00,0.0109
3747.00,0.0109
3746.00,0.0108
3745.00,0.0107
3744.00,0.0106
3743.00,0.0106
3742.00,0.0105
3741.00,0.0104
3740.00,0.0103
3739.00,0.0103
3738.00,0.0102
3737.00,0.0102
3736.00,0.0101
3735.00,0.0101
3734.00,0.0101
3733.00,0.0101
3732.00,0.0101
3731.00,0.0101
3730.00,0.0101
3729.00,0.0101
3728.00,0.0102
3727.00,0.0102
3726.00,0.0103
3725.00,0.0103
3724.00,0.0104
3723.00,0.0104
3722.00,0.0105
3721.00,0.0105
3720.00,0.0106
3719.00,0.0107
3718.00,0.0108
3717.00,0.0108
3716.00,0.0109
3715.00,0.0108
3714.00,0.0108
3713.00,0.0107
3712.00,0.0106
3711.00,0.0106
3710.00,0.0105
3709.00,0.0104
3708.00,0.0104
3707.00,0.0104
3706.00,0.0104
3705.00,0.0104
3704.00,0.0104
3703.00,0.0104
3702.00,0.0104
3701.00,0.0104
3700.00,0.0104
3699.00,0.0104
3698.00,0.0105
3697.00,0.0105
3696.00,0.0105
3695.00,0.0104
3694.00,0.0104
3693.00,0.0105
3692.00,0.0105
3691.00,0.0106
3690.00,0.0106
3689.00,0.0106
3688.00,0.0106
3687.00,0.0106
3686.00,0.0106
3685.00,0.0106
3684.00,0.0106
3683.00,0.0107
3682.00,0.0107
3681.00,0.0107
3680.00,0.0107
3679.00,0.0107
3678.00,0.0107
3677.00,0.0107
3676.00,0.0108
3675.00,0.0108
3674.00,0.0108
3673.00,0.0108
3672.00,0.0108
3671.00,0.0108
3670.00,0.0108
3669.00,0.0108
3668.00,0.0108
3667.00,0.0107
3666.00,0.0107
3665.00,0.0108
3664.00,0.0108
3663.00,0.0108
3662.00,0.0108
3661.00,0.0108
3660.00,0.0108
3659.00,0.0107
3658.00,0.0107
3657.00,0.0107
3656.00,0.0107
3655.00,0.0107
3654.00,0.0107
3653.00,0.0107
3652.00,0.0107
3651.00,0.0107
3650.00,0.0107
3649.00,0.0107
3648.00,0.0106
3647.00,0.0105
3646.00,0.0105
3645.00,0.0104
3644.00,0.0104
3643.00,0.0104
3642.00,0.0104
3641.00,0.0103
3640.00,0.0103
3639.00,0.0102
3638.00,0.0102
3637.00,0.0101
3636.00,0.0101
3635.00,0.0101
3634.00,0.0101
3633.00,0.0100
3632.00,0.0100
3631.00,0.0100
3630.00,0.0100
3629.00,0.0100
3628.00,0.0100
3627.00,0.0100
3626.00,0.0101
3625.00,0.0101
3624.00,0.0102
3623.00,0.0102
3622.00,0.0103
3621.00,0.0103
3620.00,0.0104
3619.00,0.0104
3618.00,0.0105
3617.00,0.0105
3616.00,0.0106
3615.00,0.0106
3614.00,0.0106
3613.00,0.0106
3612.00,0.0105
3611.00,0.0105
3610.00,0.0104
3609.00,0.0104
3608.00,0.0103
3607.00,0.0103
3606.00,0.0102
3605.00,0.0102
3604.00,0.0102
3603.00,0.0102
3602.00,0.0102
3601.00,0.0102
3600.00,0.0102
3599.00,0.0102
3598.00,0.0102
3597.00,0.0102
3596.00,0.0102
3595.00,0.0102
3594.00,0.0102
3593.00,0.0102
3592.00,0.0102
3591.00,0.0102
3590.00,0.0102
3589.00,0.0102
3588.00,0.0102
3587.00,0.0102
3586.00,0.0102
3585.00,0.0103
3584.00,0.0103
3583.00,0.0103
3582.00,0.0104
3581.00,0.0104
3580.00,0.0104
3579.00,0.0104
3578.00,0.0104
3577.00,0.0104
3576.00,0.0104
3575.00,0.0104
3574.00,0.0104
3573.00,0.0104
3572.00,0.0104
3571.00,0.0104
3570.00,0.0104
3569.00,0.0104
3568.00,0.0104
3567.00,0.0104
3566.00,0.0104
3565.00,0.0105
3564.00,0.0105
3563.00,0.0105
3562.00,0.0105
3561.00,0.0105
3560.00,0.0105
3559.00,0.0105
3558.00,0.0105
3557.00,0.0105
3556.00,0.0105
3555.00,0.0106
3554.00,0.0106
3553.00,0.0106
3552.00,0.0106
3551.00,0.0106
3550.00,0.0106
3549.00,0.0106
3548.00,0.0106
3547.00,0.0106
3546.00,0.0106
3545.00,0.0106
3544.00,0.0106
3543.00,0.0106
3542.00,0.0106
3541.00,0.0106
3540.00,0.0106
3539.00,0.0106
3538.00,0.0106
3537.00,0.0106
3536.00,0.0106
3535.00,0.0106
3534.00,0.0106
3533.00,0.0106
3532.00,0.0106
3531.00,0.0106
3530.00,0.0106
3529.00,0.0106
3528.00,0.0106
3527.00,0.0106
3526.00,0.0106
3525.00,0.0106
3524.00,0.0106
3523.00,0.0106
3522.00,0.0106
3521.00,0.0106
3520.00,0.0106
3519.00,0.0106
3518.00,0.0106
3517.00,0.0106
3516.00,0.0106
3515.00,0.0106
3514.00,0.0106
3513.00,0.0106
3512.00,0.0106
3511.00,0.0106
3510.00,0.0106
3509.00,0.0106
3508.00,0.0106
3507.00,0.0106
3506.00,0.0106
3505.00,0.0106
3504.00,0.0106
3503.00,0.0106
3502.00,0.0106
3501.00,0.0106
3500.00,0.0106
3499.00,0.0107
3498.00,0.0107
3497.00,0.0107
3496.00,0.0107
3495.00,0.0107
3494.00,0.0107
3493.00,0.0108
3492.00,0.0108
3491.00,0.0108
3490.00,0.0108
3489.00,0.0108
3488.00,0.0108
3487.00,0.0108
3486.00,0.0108
3485.00,0.0108
3484.00,0.0108
3483.00,0.0109
3482.00,0.0109
3481.00,0.0109
3480.00,0.0109
3479.00,0.0109
3478.00,0.0110
3477.00,0.0110
3476.00,0.0110
3475.00,0.0110
3474.00,0.0110
3473.00,0.0110
3472.00,0.0110
3471.00,0.0109
3470.00,0.0109
3469.00,0.0109
3468.00,0.0110
3467.00,0.0110
3466.00,0.0111
3465.00,0.0111
3464.00,0.0112
3463.00,0.0112
3462.00,0.0112
3461.00,0.0112
3460.00,0.0112
3459.00,0.0112
3458.00,0.0112
3457.00,0.0112
3456.00,0.0113
3455.00,0.0113
3454.00,0.0113
3453.00,0.0113
3452.00,0.0113
3451.00,0.0113
3450.00,0.0113
3449.00,0.0114
3448.00,0.0114
3447.00,0.0114
3446.00,0.0114
3445.00,0.0115
3444.00,0.0115
3443.00,0.0115
3442.00,0.0115
3441.00,0.0115
3440.00,0.0115
3439.00,0.0114
3438.00,0.0114
3437.00,0.0114
3436.00,0.0115
3435.00,0.0115
3434.00,0.0115
3433.00,0.0116
3432.00,0.0116
3431.00,0.0116
3430.00,0.0117
3429.00,0.0117
3428.00,0.0118
3427.00,0.0119
3426.00,0.0120
3425.00,0.0120
3424.00,0.0121
3423.00,0.0121
3422.00,0.0122
3421.00,0.0122
3420.00,0.0123
3419.00,0.0124
3418.00,0.0124
3417.00,0.0125
3416.00,0.0125
3415.00,0.0125
3414.00,0.0125
3413.00,0.0124
3412.00,0.0124
3411.00,0.0125
3410.00,0.0125
3409.00,0.0125
3408.00,0.0126
3407.00,0.0127
3406.00,0.0127
3405.00,0.0126
3404.00,0.0125
3403.00,0.0123
3402.00,0.0121
3401.00,0.0120
3400.00,0.0121
3399.00,0.0122
3398.00,0.0123
3397.00,0.0124
3396.00,0.0124
3395.00,0.0123
3394.00,0.0122
3393.00,0.0121
3392.00,0.0121
3391.00,0.0121
3390.00,0.0122
3389.00,0.0123
3388.00,0.0123
3387.00,0.0123
3386.00,0.0124
3385.00,0.0124
3384.00,0.0124
3383.00,0.0124
3382.00,0.0123
3381.00,0.0123
3380.00,0.0123
3379.00,0.0123
3378.00,0.0123
3377.00,0.0123
3376.00,0.0124
3375.00,0.0123
3374.00,0.0123
3373.00,0.0123
3372.00,0.0123
3371.00,0.0123
3370.00,0.0123
3369.00,0.0123
3368.00,0.0123
3367.00,0.0124
3366.00,0.0124
3365.00,0.0125
3364.00,0.0125
3363.00,0.0125
3362.00,0.0125
3361.00,0.0126
3360.00,0.0126
3359.00,0.0127
3358.00,0.0127
3357.00,0.0127
3356.00,0.0128
3355.00,0.0128
3354.00,0.0128
3353.00,0.0128
3352.00,0.0128
3351.00,0.0128
3350.00,0.0128
3349.00,0.0129
3348.00,0.0129
3347.00,0.0130
3346.00,0.0130
3345.00,0.0130
3344.00,0.0131
3343.00,0.0131
3342.00,0.0131
3341.00,0.0131
3340.00,0.0132
3339.00,0.0132
3338.00,0.0132
3337.00,0.0133
3336.00,0.0133
3335.00,0.0134
3334.00,0.0134
3333.00,0.0135
3332.00,0.0135
3331.00,0.0136
3330.00,0.0136
3329.00,0.0136
3328.00,0.0137
3327.00,0.0137
3326.00,0.0137
3325.00,0.0138
3324.00,0.0138
3323.00,0.0139
3322.00,0.0139
3321.00,0.0139
3320.00,0.0140
3319.00,0.0141
3318.00,0.0141
3317.00,0.0142
3316.00,0.0143
3315.00,0.0143
3314.00,0.0144
3313.00,0.0145
3312.00,0.0145
3311.00,0.0146
3310.00,0.0147
3309.00,0.0147
3308.00,0.0148
3307.00,0.0149
3306.00,0.0150
3305.00,0.0152
3304.00,0.0154
3303.00,0.0156
3302.00,0.0157
3301.00,0.0159
3300.00,0.0160
3299.00,0.0161
3298.00,0.0162
3297.00,0.0163
3296.00,0.0164
3295.00,0.0165
3294.00,0.0166
3293.00,0.0168
3292.00,0.0169
3291.00,0.0171
3290.00,0.0172
3289.00,0.0174
3288.00,0.0175
3287.00,0.0176
3286.00,0.0177
3285.00,0.0178
3284.00,0.0179
3283.00,0.0179
3282.00,0.0180
3281.00,0.0181
3280.00,0.0182
3279.00,0.0183
3278.00,0.0183
3277.00,0.0183
3276.00,0.0183
3275.00,0.0183
3274.00,0.0183
3273.00,0.0183
3272.00,0.0183
3271.00,0.0183
3270.00,0.0185
3269.00,0.0187
3268.00,0.0190
3267.00,0.0191
3266.00,0.0192
3265.00,0.0193
3264.00,0.0194
3263.00,0.0195
3262.00,0.0195
3261.00,0.0196
3260.00,0.0196
3259.00,0.0196
3258.00,0.0196
3257.00,0.0196
3256.00,0.0196
3255.00,0.0197
3254.00,0.0198
3253.00,0.0199
3252.00,0.0200
3251.00,0.0201
3250.00,0.0201
3249.00,0.0200
3248.00,0.0200
3247.00,0.0201
3246.00,0.0202
3245.00,0.0204
3244.00,0.0205
3243.00,0.0207
3242.00,0.0208
3241.00,0.0209
3240.00,0.0210
3239.00,0.0211
3238.00,0.0212
3237.00,0.0213
3236.00,0.0213
3235.00,0.0213
3234.00,0.0213
3233.00,0.0215
3232.00,0.0218
3231.00,0.0220
3230.00,0.0223
3229.00,0.0225
3228.00,0.0226
3227.00,0.0228
3226.00,0.0229
3225.00,0.0231
3224.00,0.0232
3223.00,0.0234
3222.00,0.0235
3221.00,0.0237
3220.00,0.0238
3219.00,0.0240
3218.00,0.0241
3217.00,0.0243
3216.00,0.0245
3215.00,0.0246
3214.00,0.0248
3213.00,0.0250
3212.00,0.0252
3211.00,0.0254
3210.00,0.0256
3209.00,0.0258
3208.00,0.0260
3207.00,0.0261
3206.00,0.0263
3205.00,0.0265
3204.00,0.0267
3203.00,0.0269
3202.00,0.0271
3201.00,0.0274
3200.00,0.0276
3199.00,0.0278
3198.00,0.0280
3197.00,0.0282
3196.00,0.0284
3195.00,0.0286
3194.00,0.0288
3193.00,0.0290
3192.00,0.0292
3191.00,0.0294
3190.00,0.0296
3189.00,0.0298
3188.00,0.0301
3187.00,0.0303
3186.00,0.0305
3185.00,0.0308
3184.00,0.0310
3183.00,0.0312
3182.00,0.0314
3181.00,0.0317
3180.00,0.0319
3179.00,0.0321
3178.00,0.0324
3177.00,0.0326
3176.00,0.0329
3175.00,0.0332
3174.00,0.0335
3173.00,0.0337
3172.00,0.0340
3171.00,0.0343
3170.00,0.0345
3169.00,0.0348
3168.00,0.0351
3167.00,0.0354
3166.00,0.0356
3165.00,0.0359
3164.00,0.0362
3163.00,0.0365
3162.00,0.0368
3161.00,0.0371
3160.00,0.0374
3159.00,0.0377
3158.00,0.0379
3157.00,0.0381
3156.00,0.0383
3155.00,0.0384
3154.00,0.0385
3153.00,0.0387
3152.00,0.0391
3151.00,0.0395
3150.00,0.0399
3149.00,0.0404
3148.00,0.0407
3147.00,0.0410
3146.00,0.0413
3145.00,0.0416
3144.00,0.0418
3143.00,0.0420
3142.00,0.0421
3141.00,0.0422
3140.00,0.0423
3139.00,0.0426
3138.00,0.0430
3137.00,0.0434
3136.00,0.0438
3135.00,0.0441
3134.00,0.0444
3133.00,0.0447
3132.00,0.0449
3131.00,0.0451
3130.00,0.0454
3129.00,0.0457
3128.00,0.0461
3127.00,0.0464
3126.00,0.0467
3125.00,0.0470
3124.00,0.0472
3123.00,0.0473
3122.00,0.0473
3121.00,0.0474
3120.00,0.0476
3119.00,0.0478
3118.00,0.0481
3117.00,0.0484
3116.00,0.0489
3115.00,0.0494
3114.00,0.0499
3113.00,0.0503
3112.00,0.0507
3111.00,0.0509
3110.00,0.0511
3109.00,0.0514
3108.00,0.0518
3107.00,0.0522
3106.00,0.0527
3105.00,0.0531
3104.00,0.0534
3103.00,0.0537
3102.00,0.0540
3101.00,0.0543
3100.00,0.0546
3099.00,0.0550
3098.00,0.0555
3097.00,0.0559
3096.00,0.0564
3095.00,0.0567
3094.00,0.0571
3093.00,0.0573
3092.00,0.0575
3091.00,0.0577
3090.00,0.0580
3089.00,0.0582
3088.00,0.0585
3087.00,0.0586
3086.00,0.0587
3085.00,0.0588
3084.00,0.0589
3083.00,0.0590
3082.00,0.0591
3081.00,0.0592
3080.00,0.0594
3079.00,0.0597
3078.00,0.0601
3077.00,0.0607
3076.00,0.0613
3075.00,0.0619
3074.00,0.0626
3073.00,0.0633
3072.00,0.0641
3071.00,0.0650
3070.00,0.0660
3069.00,0.0674
3068.00,0.0692
3067.00,0.0716
3066.00,0.0749
3065.00,0.0790
3064.00,0.0842
3063.00,0.0904
3062.00,0.0974
3061.00,0.1046
3060.00,0.1110
3059.00,0.1156
3058.00,0.1174
3057.00,0.1163
3056.00,0.1126
3055.00,0.1075
3054.00,0.1019
3053.00,0.0965
3052.00,0.0918
3051.00,0.0881
3050.00,0.0852
3049.00,0.0829
3048.00,0.0813
3047.00,0.0799
3046.00,0.0790
3045.00,0.0782
3044.00,0.0777
3043.00,0.0774
3042.00,0.0772
3041.00,0.0771
3040.00,0.0772
3039.00,0.0773
3038.00,0.0774
3037.00,0.0774
3036.00,0.0775
3035.00,0.0777
3034.00,0.0779
3033.00,0.0782
3032.00,0.0785
3031.00,0.0789
3030.00,0.0792
3029.00,0.0796
3028.00,0.0799
3027.00,0.0803
3026.00,0.0806
3025.00,0.0809
3024.00,0.0813
3023.00,0.0816
3022.00,0.0820
3021.00,0.0823
3020.00,0.0827
3019.00,0.0830
3018.00,0.0833
3017.00,0.0836
3016.00,0.0838
3015.00,0.0841
3014.00,0.0844
3013.00,0.0848
3012.00,0.0852
3011.00,0.0856
3010.00,0.0860
3009.00,0.0865
3008.00,0.0868
3007.00,0.0872
3006.00,0.0875
3005.00,0.0878
3004.00,0.0880
3003.00,0.0883
3002.00,0.0886
3001.00,0.0889
3000.00,0.0891
2999.00,0.0893
2998.00,0.0895
2997.00,0.0896
2996.00,0.0898
2995.00,0.0898
2994.00,0.0898
2993.00,0.0898
2992.00,0.0898
2991.00,0.0897
2990.00,0.0896
2989.00,0.0895
2988.00,0.0894
2987.00,0.0893
2986.00,0.0892
2985.00,0.0891
2984.00,0.0890
2983.00,0.0890
2982.00,0.0890
2981.00,0.0892
2980.00,0.0895
2979.00,0.0899
2978.00,0.0903
2977.00,0.0908
2976.00,0.0912
2975.00,0.0915
2974.00,0.0919
2973.00,0.0922
2972.00,0.0924
2971.00,0.0927
2970.00,0.0930
2969.00,0.0933
2968.00,0.0936
2967.00,0.0938
2966.00,0.0940
2965.00,0.0942
2964.00,0.0944
2963.00,0.0946
2962.00,0.0949
2961.00,0.0952
2960.00,0.0955
2959.00,0.0958
2958.00,0.0962
2957.00,0.0966
2956.00,0.0970
2955.00,0.0974
2954.00,0.0978
2953.00,0.0983
2952.00,0.0989
2951.00,0.0994
2950.00,0.0999
2949.00,0.1004
2948.00,0.1009
2947.00,0.1014
2946.00,0.1019
2945.00,0.1024
2944.00,0.1030
2943.00,0.1036
2942.00,0.1042
2941.00,0.1047
2940.00,0.1052
2939.00,0.1057
2938.00,0.1061
2937.00,0.1066
2936.00,0.1071
2935.00,0.1075
2934.00,0.1079
2933.00,0.1083
2932.00,0.1086
2931.00,0.1090
2930.00,0.1094
2929.00,0.1099
2928.00,0.1104
2927.00,0.1109
2926.00,0.1114
2925.00,0.1117
2924.00,0.1121
2923.00,0.1124
2922.00,0.1126
2921.00,0.1128
2920.00,0.1129
2919.00,0.1130
2918.00,0.1131
2917.00,0.1133
2916.00,0.1134
2915.00,0.1135
2914.00,0.1136
2913.00,0.1137
2912.00,0.1139
2911.00,0.1140
2910.00,0.1142
2909.00,0.1143
2908.00,0.1144
2907.00,0.1144
2906.00,0.1145
2905.00,0.1145
2904.00,0.1146
2903.00,0.1147
2902.00,0.1148
2901.00,0.1150
2900.00,0.1152
2899.00,0.1154
2898.00,0.1156
2897.00,0.1158
2896.00,0.1161
2895.00,0.1165
2894.00,0.1168
2893.00,0.1172
2892.00,0.1176
2891.00,0.1179
2890.00,0.1183
2889.00,0.1186
2888.00,0.1189
2887.00,0.1191
2886.00,0.1194
2885.00,0.1195
2884.00,0.1197
2883.00,0.1198
2882.00,0.1200
2881.00,0.1201
2880.00,0.1202
2879.00,0.1203
2878.00,0.1204
2877.00,0.1204
2876.00,0.1204
2875.00,0.1204
2874.00,0.1203
2873.00,0.1204
2872.00,0.1204
2871.00,0.1205
2870.00,0.1205
2869.00,0.1204
2868.00,0.1203
2867.00,0.1201
2866.00,0.1199
2865.00,0.1197
2864.00,0.1195
2863.00,0.1192
2862.00,0.1190
2861.00,0.1187
2860.00,0.1185
2859.00,0.1182
2858.00,0.1180
2857.00,0.1178
2856.00,0.1176
2855.00,0.1173
2854.00,0.1170
2853.00,0.1168
2852.00,0.1166
2851.00,0.1163
2850.00,0.1160
2849.00,0.1158
2848.00,0.1156
2847.00,0.1154
2846.00,0.1152
2845.00,0.1150
2844.00,0.1148
2843.00,0.1145
2842.00,0.1143
2841.00,0.1140
2840.00,0.1137
2839.00,0.1134
2838.00,0.1132
2837.00,0.1130
2836.00,0.1128
2835.00,0.1126
2834.00,0.1124
2833.00,0.1121
2832.00,0.1118
2831.00,0.1116
2830.00,0.1112
2829.00,0.1109
2828.00,0.1106
2827.00,0.1102
2826.00,0.1098
2825.00,0.1094
2824.00,0.1091
2823.00,0.1087
2822.00,0.1083
2821.00,0.1080
2820.00,0.1077
2819.00,0.1074
2818.00,0.1071
2817.00,0.1068
2816.00,0.1066
2815.00,0.1064
2814.00,0.1062
2813.00,0.1061
2812.00,0.1061
2811.00,0.1061
2810.00,0.1062
2809.00,0.1063
2808.00,0.1065
2807.00,0.1067
2806.00,0.1070
2805.00,0.1074
2804.00,0.1079
2803.00,0.1083
2802.00,0.1088
2801.00,0.1094
2800.00,0.1099
2799.00,0.1104
2798.00,0.1109
2797.00,0.1114
2796.00,0.1118
2795.00,0.1120
2794.00,0.1120
2793.00,0.1119
2792.00,0.1117
2791.00,0.1113
2790.00,0.1108
2789.00,0.1102
2788.00,0.1096
2787.00,0.1088
2786.00,0.1080
2785.00,0.1071
2784.00,0.1062
2783.00,0.1052
2782.00,0.1042
2781.00,0.1033
2780.00,0.1023
2779.00,0.1013
2778.00,0.1003
2777.00,0.0994
2776.00,0.0984
2775.00,0.0975
2774.00,0.0966
2773.00,0.0958
2772.00,0.0949
2771.00,0.0941
2770.00,0.0933
2769.00,0.0925
2768.00,0.0917
2767.00,0.0909
2766.00,0.0902
2765.00,0.0895
2764.00,0.0889
2763.00,0.0883
2762.00,0.0877
2761.00,0.0872
2760.00,0.0867
2759.00,0.0863
2758.00,0.0859
2757.00,0.0855
2756.00,0.0852
2755.00,0.0849
2754.00,0.0846
2753.00,0.0844
2752.00,0.0842
2751.00,0.0840
2750.00,0.0838
2749.00,0.0837
2748.00,0.0836
2747.00,0.0834
2746.00,0.0833
2745.00,0.0833
2744.00,0.0832
2743.00,0.0831
2742.00,0.0830
2741.00,0.0830
2740.00,0.0829
2739.00,0.0829
2738.00,0.0830
2737.00,0.0831
2736.00,0.0833
2735.00,0.0836
2734.00,0.0840
2733.00,0.0844
2732.00,0.0848
2731.00,0.0853
2730.00,0.0857
2729.00,0.0861
2728.00,0.0864
2727.00,0.0867
2726.00,0.0869
2725.00,0.0871
2724.00,0.0872
2723.00,0.0872
2722.00,0.0872
2721.00,0.0871
2720.00,0.0871
2719.00,0.0869
2718.00,0.0868
2717.00,0.0866
2716.00,0.0863
2715.00,0.0861
2714.00,0.0859
2713.00,0.0857
2712.00,0.0854
2711.00,0.0853
2710.00,0.0851
2709.00,0.0850
2708.00,0.0849
2707.00,0.0848
2706.00,0.0848
2705.00,0.0849
2704.00,0.0851
2703.00,0.0854
2702.00,0.0858
2701.00,0.0863
2700.00,0.0870
2699.00,0.0878
2698.00,0.0888
2697.00,0.0898
2696.00,0.0910
2695.00,0.0922
2694.00,0.0935
2693.00,0.0948
2692.00,0.0960
2691.00,0.0972
2690.00,0.0982
2689.00,0.0990
2688.00,0.0996
2687.00,0.1001
2686.00,0.1004
2685.00,0.1005
2684.00,0.1005
2683.00,0.1002
2682.00,0.0998
2681.00,0.0993
2680.00,0.0987
2679.00,0.0980
2678.00,0.0972
2677.00,0.0963
2676.00,0.0955
2675.00,0.0945
2674.00,0.0936
2673.00,0.0927
2672.00,0.0919
2671.00,0.0910
2670.00,0.0902
2669.00,0.0894
2668.00,0.0887
2667.00,0.0880
2666.00,0.0874
2665.00,0.0868
2664.00,0.0862
2663.00,0.0857
2662.00,0.0853
2661.00,0.0849
2660.00,0.0845
2659.00,0.0842
2658.00,0.0839
2657.00,0.0836
2656.00,0.0834
2655.00,0.0832
2654.00,0.0830
2653.00,0.0829
2652.00,0.0827
2651.00,0.0825
2650.00,0.0824
2649.00,0.0822
2648.00,0.0820
2647.00,0.0819
2646.00,0.0817
2645.00,0.0815
2644.00,0.0813
2643.00,0.0811
2642.00,0.0810
2641.00,0.0808
2640.00,0.0807
2639.00,0.0805
2638.00,0.0804
2637.00,0.0804
2636.00,0.0804
2635.00,0.0804
2634.00,0.0806
2633.00,0.0808
2632.00,0.0812
2631.00,0.0818
2630.00,0.0825
2629.00,0.0835
2628.00,0.0846
2627.00,0.0860
2626.00,0.0876
2625.00,0.0893
2624.00,0.0913
2623.00,0.0935
2622.00,0.0958
2621.00,0.0983
2620.00,0.1009
2619.00,0.1035
2618.00,0.1061
2617.00,0.1086
2616.00,0.1111
2615.00,0.1134
2614.00,0.1156
2613.00,0.1176
2612.00,0.1193
2611.00,0.1208
2610.00,0.1220
2609.00,0.1230
2608.00,0.1237
2607.00,0.1242
2606.00,0.1244
2605.00,0.1244
2604.00,0.1242
2603.00,0.1239
2602.00,0.1235
2601.00,0.1230
2600.00,0.1225
2599.00,0.1219
2598.00,0.1212
2597.00,0.1206
2596.00,0.1201
2595.00,0.1196
2594.00,0.1191
2593.00,0.1187
2592.00,0.1184
2591.00,0.1183
2590.00,0.1182
2589.00,0.1184
2588.00,0.1186
2587.00,0.1189
2586.00,0.1192
2585.00,0.1195
2584.00,0.1197
2583.00,0.1198
2582.00,0.1198
2581.00,0.1197
2580.00,0.1194
2579.00,0.1190
2578.00,0.1185
2577.00,0.1179
2576.00,0.1173
2575.00,0.1166
2574.00,0.1159
2573.00,0.1153
2572.00,0.1147
2571.00,0.1142
2570.00,0.1136
2569.00,0.1131
2568.00,0.1126
2567.00,0.1121
2566.00,0.1116
2565.00,0.1112
2564.00,0.1108
2563.00,0.1104
2562.00,0.1101
2561.00,0.1098
2560.00,0.1096
2559.00,0.1094
2558.00,0.1092
2557.00,0.1090
2556.00,0.1089
2555.00,0.1089
2554.00,0.1089
2553.00,0.1089
2552.00,0.1088
2551.00,0.1088
2550.00,0.1087
2549.00,0.1086
2548.00,0.1084
2547.00,0.1083
2546.00,0.1081
2545.00,0.1081
2544.00,0.1080
2543.00,0.1080
2542.00,0.1080
2541.00,0.1081
2540.00,0.1082
2539.00,0.1083
2538.00,0.1085
2537.00,0.1087
2536.00,0.1089
2535.00,0.1091
2534.00,0.1093
2533.00,0.1095
2532.00,0.1098
2531.00,0.1101
2530.00,0.1105
2529.00,0.1108
2528.00,0.1112
2527.00,0.1116
2526.00,0.1121
2525.00,0.1126
2524.00,0.1132
2523.00,0.1138
2522.00,0.1145
2521.00,0.1153
2520.00,0.1160
2519.00,0.1168
2518.00,0.1176
2517.00,0.1184
2516.00,0.1193
2515.00,0.1201
2514.00,0.1209
2513.00,0.1217
2512.00,0.1224
2511.00,0.1230
2510.00,0.1235
2509.00,0.1240
2508.00,0.1244
2507.00,0.1247
2506.00,0.1248
2505.00,0.1248
2504.00,0.1248
2503.00,0.1246
2502.00,0.1243
2501.00,0.1240
2500.00,0.1236
2499.00,0.1231
2498.00,0.1226
2497.00,0.1221
2496.00,0.1215
2495.00,0.1209
2494.00,0.1203
2493.00,0.1198
2492.00,0.1193
2491.00,0.1188
2490.00,0.1185
2489.00,0.1181
2488.00,0.1178
2487.00,0.1176
2486.00,0.1174
2485.00,0.1172
2484.00,0.1170
2483.00,0.1169
2482.00,0.1168
2481.00,0.1166
2480.00,0.1164
2479.00,0.1162
2478.00,0.1159
2477.00,0.1155
2476.00,0.1152
2475.00,0.1148
2474.00,0.1145
2473.00,0.1141
2472.00,0.1137
2471.00,0.1133
2470.00,0.1130
2469.00,0.1127
2468.00,0.1124
2467.00,0.1121
2466.00,0.1119
2465.00,0.1117
2464.00,0.1115
2463.00,0.1113
2462.00,0.1112
2461.00,0.1111
2460.00,0.1110
2459.00,0.1110
2458.00,0.1110
2457.00,0.1110
2456.00,0.1110
2455.00,0.1111
2454.00,0.1112
2453.00,0.1114
2452.00,0.1115
2451.00,0.1117
2450.00,0.1119
2449.00,0.1121
2448.00,0.1123
2447.00,0.1125
2446.00,0.1128
2445.00,0.1131
2444.00,0.1134
2443.00,0.1137
2442.00,0.1141
2441.00,0.1145
2440.00,0.1150
2439.00,0.1156
2438.00,0.1161
2437.00,0.1165
2436.00,0.1169
2435.00,0.1173
2434.00,0.1176
2433.00,0.1179
2432.00,0.1181
2431.00,0.1183
2430.00,0.1185
2429.00,0.1186
2428.00,0.1186
2427.00,0.1186
2426.00,0.1186
2425.00,0.1186
2424.00,0.1186
2423.00,0.1186
2422.00,0.1186
2421.00,0.1187
2420.00,0.1188
2419.00,0.1189
2418.00,0.1191
2417.00,0.1194
2416.00,0.1197
2415.00,0.1201
2414.00,0.1204
2413.00,0.1207
2412.00,0.1210
2411.00,0.1213
2410.00,0.1215
2409.00,0.1216
2408.00,0.1218
2407.00,0.1219
2406.00,0.1220
2405.00,0.1221
2404.00,0.1222
2403.00,0.1223
2402.00,0.1224
2401.00,0.1226
2400.00,0.1227
2399.00,0.1228
2398.00,0.1229
2397.00,0.1231
2396.00,0.1233
2395.00,0.1235
2394.00,0.1237
2393.00,0.1239
2392.00,0.1241
2391.00,0.1243
2390.00,0.1244
2389.00,0.1246
2388.00,0.1247
2387.00,0.1248
2386.00,0.1249
2385.00,0.1250
2384.00,0.1251
2383.00,0.1252
2382.00,0.1252
2381.00,0.1252
2380.00,0.1251
2379.00,0.1204
2378.00,0.1204
2377.00,0.1204
2376.00,0.1204
2375.00,0.1203
2374.00,0.1201
2373.00,0.1198
2372.00,0.1196
2371.00,0.1193
2370.00,0.1190
2369.00,0.1188
2368.00,0.1185
2367.00,0.1182
2366.00,0.1180
2365.00,0.1177
2364.00,0.1175
2363.00,0.1172
2362.00,0.1170
2361.00,0.1166
2360.00,0.1164
2359.00,0.1162
2358.00,0.1161
2357.00,0.1162
2356.00,0.1162
2355.00,0.1161
2354.00,0.1158
2353.00,0.1155
2352.00,0.1151
2351.00,0.1147
2350.00,0.1142
2349.00,0.1137
2348.00,0.1131
2347.00,0.1124
2346.00,0.1117
2345.00,0.1114
2344.00,0.1113
2343.00,0.1114
2342.00,0.1117
2341.00,0.1121
2340.00,0.1123
2339.00,0.1122
2338.00,0.1120
2337.00,0.1118
2336.00,0.1116
2335.00,0.1112
2334.00,0.1108
2333.00,0.1102
2332.00,0.1097
2331.00,0.1093
2330.00,0.1090
2329.00,0.1089
2328.00,0.1090
2327.00,0.1092
2326.00,0.1094
2325.00,0.1095
2324.00,0.1095
2323.00,0.1096
2322.00,0.1098
2321.00,0.1102
2320.00,0.1106
2319.00,0.1110
2318.00,0.1112
2317.00,0.1111
2316.00,0.1108
2315.00,0.1102
2314.00,0.1095
2313.00,0.1088
2312.00,0.1082
2311.00,0.1077
2310.00,0.1073
2309.00,0.1070
2308.00,0.1069
2307.00,0.1067
2306.00,0.1066
2305.00,0.1064
2304.00,0.1062
2303.00,0.1060
2302.00,0.1058
2301.00,0.1056
2300.00,0.1054
2299.00,0.1053
2298.00,0.1051
2297.00,0.1049
2296.00,0.1048
2295.00,0.1046
2294.00,0.1044
2293.00,0.1042
2292.00,0.1039
2291.00,0.1036
2290.00,0.1031
2289.00,0.1026
2288.00,0.1020
2287.00,0.1014
2286.00,0.1007
2285.00,0.1000
2284.00,0.0993
2283.00,0.0985
2282.00,0.0977
2281.00,0.0969
2280.00,0.0961
2279.00,0.0954
2278.00,0.0946
2277.00,0.0938
2276.00,0.0930
2275.00,0.0921
2274.00,0.0911
2273.00,0.0902
2272.00,0.0892
2271.00,0.0881
2270.00,0.0871
2269.00,0.0861
2268.00,0.0852
2267.00,0.0844
2266.00,0.0836
2265.00,0.0830
2264.00,0.0823
2263.00,0.0817
2262.00,0.0811
2261.00,0.0806
2260.00,0.0803
2259.00,0.0799
2258.00,0.0794
2257.00,0.0790
2256.00,0.0785
2255.00,0.0781
2254.00,0.0778
2253.00,0.0776
2252.00,0.0775
2251.00,0.0774
2250.00,0.0772
2249.00,0.0771
2248.00,0.0769
2247.00,0.0768
2246.00,0.0768
2245.00,0.0768
2244.00,0.0768
2243.00,0.0768
2242.00,0.0768
2241.00,0.0769
2240.00,0.0768
2239.00,0.0767
2238.00,0.0765
2237.00,0.0764
2236.00,0.0764
2235.00,0.0763
2234.00,0.0762
2233.00,0.0759
2232.00,0.0756
2231.00,0.0753
2230.00,0.0750
2229.00,0.0747
2228.00,0.0744
2227.00,0.0741
2226.00,0.0737
2225.00,0.0733
2224.00,0.0729
2223.00,0.0726
2222.00,0.0724
2221.00,0.0722
2220.00,0.0720
2219.00,0.0718
2218.00,0.0716
2217.00,0.0716
2216.00,0.0717
2215.00,0.0717
2214.00,0.0718
2213.00,0.0718
2212.00,0.0717
2211.00,0.0717
2210.00,0.0717
2209.00,0.0718
2208.00,0.0719
2207.00,0.0721
2206.00,0.0723
2205.00,0.0727
2204.00,0.0731
2203.00,0.0734
2202.00,0.0737
2201.00,0.0740
2200.00,0.0742
2199.00,0.0745
2198.00,0.0749
2197.00,0.0753
2196.00,0.0757
2195.00,0.0760
2194.00,0.0762
2193.00,0.0764
2192.00,0.0767
2191.00,0.0768
2190.00,0.0770
2189.00,0.0773
2188.00,0.0777
2187.00,0.0779
2186.00,0.0781
2185.00,0.0782
2184.00,0.0782
2183.00,0.0782
2182.00,0.0783
2181.00,0.0787
2180.00,0.0792
2179.00,0.0795
2178.00,0.0799
2177.00,0.0803
2176.00,0.0808
2175.00,0.0814
2174.00,0.0822
2173.00,0.0830
2172.00,0.0839
2171.00,0.0846
2170.00,0.0852
2169.00,0.0856
2168.00,0.0860
2167.00,0.0862
2166.00,0.0863
2165.00,0.0865
2164.00,0.0865
2163.00,0.0861
2162.00,0.0853
2161.00,0.0839
2160.00,0.0825
2159.00,0.0815
2158.00,0.0810
2157.00,0.0809
2156.00,0.0809
2155.00,0.0807
2154.00,0.0805
2153.00,0.0803
2152.00,0.0800
2151.00,0.0796
2150.00,0.0791
2149.00,0.0787
2148.00,0.0781
2147.00,0.0775
2146.00,0.0768
2145.00,0.0762
2144.00,0.0756
2143.00,0.0751
2142.00,0.0745
2141.00,0.0740
2140.00,0.0734
2139.00,0.0727
2138.00,0.0719
2137.00,0.0710
2136.00,0.0702
2135.00,0.0694
2134.00,0.0688
2133.00,0.0684
2132.00,0.0680
2131.00,0.0677
2130.00,0.0673
2129.00,0.0670
2128.00,0.0667
2127.00,0.0662
2126.00,0.0657
2125.00,0.0653
2124.00,0.0648
2123.00,0.0644
2122.00,0.0640
2121.00,0.0637
2120.00,0.0635
2119.00,0.0634
2118.00,0.0634
2117.00,0.0634
2116.00,0.0635
2115.00,0.0634
2114.00,0.0633
2113.00,0.0631
2112.00,0.0629
2111.00,0.0625
2110.00,0.0621
2109.00,0.0617
2108.00,0.0612
2107.00,0.0606
2106.00,0.0599
2105.00,0.0592
2104.00,0.0586
2103.00,0.0579
2102.00,0.0572
2101.00,0.0565
2100.00,0.0559
2099.00,0.0552
2098.00,0.0545
2097.00,0.0538
2096.00,0.0531
2095.00,0.0526
2094.00,0.0523
2093.00,0.0520
2092.00,0.0517
2091.00,0.0513
2090.00,0.0510
2089.00,0.0508
2088.00,0.0507
2087.00,0.0504
2086.00,0.0502
2085.00,0.0499
2084.00,0.0497
2083.00,0.0493
2082.00,0.0490
2081.00,0.0488
2080.00,0.0485
2079.00,0.0482
2078.00,0.0479
2077.00,0.0476
2076.00,0.0473
2075.00,0.0470
2074.00,0.0468
2073.00,0.0466
2072.00,0.0465
2071.00,0.0464
2070.00,0.0462
2069.00,0.0461
2068.00,0.0459
2067.00,0.0457
2066.00,0.0456
2065.00,0.0455
2064.00,0.0454
2063.00,0.0452
2062.00,0.0450
2061.00,0.0448
2060.00,0.0447
2059.00,0.0446
2058.00,0.0444
2057.00,0.0443
2056.00,0.0442
2055.00,0.0442
2054.00,0.0445
2053.00,0.0450
2052.00,0.0455
2051.00,0.0455
2050.00,0.0452
2049.00,0.0449
2048.00,0.0447
2047.00,0.0445
2046.00,0.0443
2045.00,0.0443
2044.00,0.0444
2043.00,0.0446
2042.00,0.0449
2041.00,0.0455
2040.00,0.0460
2039.00,0.0463
2038.00,0.0462
2037.00,0.0459
2036.00,0.0452
2035.00,0.0442
2034.00,0.0430
2033.00,0.0420
2032.00,0.0412
2031.00,0.0403
2030.00,0.0394
2029.00,0.0388
2028.00,0.0383
2027.00,0.0378
2026.00,0.0373
2025.00,0.0369
2024.00,0.0364
2023.00,0.0357
2022.00,0.0349
2021.00,0.0345
2020.00,0.0342
2019.00,0.0339
2018.00,0.0337
2017.00,0.0338
2016.00,0.0340
2015.00,0.0338
2014.00,0.0334
2013.00,0.0331
2012.00,0.0330
2011.00,0.0328
2010.00,0.0325
2009.00,0.0322
2008.00,0.0319
2007.00,0.0315
2006.00,0.0314
2005.00,0.0315
2004.00,0.0316
2003.00,0.0315
2002.00,0.0314
2001.00,0.0314
2000.00,0.0314
1999.00,0.0312
1998.00,0.0311
1997.00,0.0310
1996.00,0.0310
1995.00,0.0308
1994.00,0.0306
1993.00,0.0306
1992.00,0.0307
1991.00,0.0309
1990.00,0.0310
1989.00,0.0310
1988.00,0.0310
1987.00,0.0309
1986.00,0.0307
1985.00,0.0308
1984.00,0.0310
1983.00,0.0311
1982.00,0.0311
1981.00,0.0310
1980.00,0.0306
1979.00,0.0298
1978.00,0.0290
1977.00,0.0289
1976.00,0.0291
1975.00,0.0293
1974.00,0.0295
1973.00,0.0298
1972.00,0.0302
1971.00,0.0303
1970.00,0.0303
1969.00,0.0305
1968.00,0.0309
1967.00,0.0314
1966.00,0.0319
1965.00,0.0324
1964.00,0.0327
1963.00,0.0328
1962.00,0.0328
1961.00,0.0330
1960.00,0.0333
1959.00,0.0335
1958.00,0.0339
1957.00,0.0346
1956.00,0.0352
1955.00,0.0356
1954.00,0.0359
1953.00,0.0362
1952.00,0.0365
1951.00,0.0368
1950.00,0.0372
1949.00,0.0376
1948.00,0.0381
1947.00,0.0385
1946.00,0.0389
1945.00,0.0393
1944.00,0.0398
1943.00,0.0406
1942.00,0.0415
1941.00,0.0425
1940.00,0.0433
1939.00,0.0438
1938.00,0.0444
1937.00,0.0451
1936.00,0.0459
1935.00,0.0466
1934.00,0.0472
1933.00,0.0479
1932.00,0.0485
1931.00,0.0491
1930.00,0.0496
1929.00,0.0502
1928.00,0.0508
1927.00,0.0512
1926.00,0.0514
1925.00,0.0520
1924.00,0.0524
1923.00,0.0526
1922.00,0.0528
1921.00,0.0530
1920.00,0.0532
1919.00,0.0533
1918.00,0.0534
1917.00,0.0535
1916.00,0.0535
1915.00,0.0535
1914.00,0.0535
1913.00,0.0534
1912.00,0.0534
1911.00,0.0532
1910.00,0.0533
1909.00,0.0537
1908.00,0.0541
1907.00,0.0543
1906.00,0.0544
1905.00,0.0545
1904.00,0.0547
1903.00,0.0550
1902.00,0.0552
1901.00,0.0556
1900.00,0.0559
1899.00,0.0561
1898.00,0.0562
1897.00,0.0563
1896.00,0.0565
1895.00,0.0568
1894.00,0.0571
1893.00,0.0573
1892.00,0.0573
1891.00,0.0574
1890.00,0.0578
1889.00,0.0585
1888.00,0.0592
1887.00,0.0593
1886.00,0.0590
1885.00,0.0586
1884.00,0.0581
1883.00,0.0575
1882.00,0.0568
1881.00,0.0561
1880.00,0.0555
1879.00,0.0548
1878.00,0.0542
1877.00,0.0537
1876.00,0.0533
1875.00,0.0529
1874.00,0.0525
1873.00,0.0522
1872.00,0.0519
1871.00,0.0515
1870.00,0.0512
1869.00,0.0509
1868.00,0.0507
1867.00,0.0504
1866.00,0.0500
1865.00,0.0497
1864.00,0.0494
1863.00,0.0490
1862.00,0.0485
1861.00,0.0481
1860.00,0.0476
1859.00,0.0471
1858.00,0.0465
1857.00,0.0459
1856.00,0.0454
1855.00,0.0447
1854.00,0.0441
1853.00,0.0435
1852.00,0.0429
1851.00,0.0423
1850.00,0.0416
1849.00,0.0409
1848.00,0.0404
1847.00,0.0398
1846.00,0.0391
1845.00,0.0386
1844.00,0.0381
1843.00,0.0376
1842.00,0.0371
1841.00,0.0367
1840.00,0.0362
1839.00,0.0357
1838.00,0.0352
1837.00,0.0348
1836.00,0.0345
1835.00,0.0342
1834.00,0.0339
1833.00,0.0336
1832.00,0.0333
1831.00,0.0331
1830.00,0.0328
1829.00,0.0326
1828.00,0.0324
1827.00,0.0322
1826.00,0.0320
1825.00,0.0319
1824.00,0.0318
1823.00,0.0316
1822.00,0.0315
1821.00,0.0317
1820.00,0.0315
1819.00,0.0314
1818.00,0.0316
1817.00,0.0319
1816.00,0.0323
1815.00,0.0325
1814.00,0.0325
1813.00,0.0323
1812.00,0.0321
1811.00,0.0320
1810.00,0.0318
1809.00,0.0316
1808.00,0.0312
1807.00,0.0306
1806.00,0.0298
1805.00,0.0290
1804.00,0.0286
1803.00,0.0281
1802.00,0.0277
1801.00,0.0273
1800.00,0.0270
1799.00,0.0266
1798.00,0.0263
1797.00,0.0260
1796.00,0.0258
1795.00,0.0255
1794.00,0.0252
1793.00,0.0251
1792.00,0.0250
1791.00,0.0247
1790.00,0.0245
1789.00,0.0243
1788.00,0.0241
1787.00,0.0239
1786.00,0.0237
1785.00,0.0235
1784.00,0.0233
1783.00,0.0231
1782.00,0.0228
1781.00,0.0226
1780.00,0.0224
1779.00,0.0221
1778.00,0.0217
1777.00,0.0214
1776.00,0.0212
1775.00,0.0210
1774.00,0.0207
1773.00,0.0205
1772.00,0.0203
1771.00,0.0200
1770.00,0.0196
1769.00,0.0194
1768.00,0.0192
1767.00,0.0190
1766.00,0.0187
1765.00,0.0185
1764.00,0.0184
1763.00,0.0183
1762.00,0.0181
1761.00,0.0181
1760.00,0.0180
1759.00,0.0180
1758.00,0.0179
1757.00,0.0180
1756.00,0.0181
1755.00,0.0181
1754.00,0.0182
1753.00,0.0185
1752.00,0.0189
1751.00,0.0193
1750.00,0.0207
1749.00,0.0213
1748.00,0.0211
1747.00,0.0219
1746.00,0.0227
1745.00,0.0238
1744.00,0.0251
1743.00,0.0265
1742.00,0.0279
1741.00,0.0295
1740.00,0.0315
1739.00,0.0334
1738.00,0.0352
1737.00,0.0369
1736.00,0.0388
1735.00,0.0411
1734.00,0.0438
1733.00,0.0464
1732.00,0.0486
1731.00,0.0539
1730.00,0.0534
1729.00,0.0539
1728.00,0.0552
1727.00,0.0564
1726.00,0.0579
1725.00,0.0603
1724.00,0.0638
1723.00,0.0678
1722.00,0.0716
1721.00,0.0750
1720.00,0.0788
1719.00,0.0849
1718.00,0.0946
1717.00,0.1070
1716.00,0.1197
1715.00,0.1319
1714.00,0.1449
1713.00,0.1602
1712.00,0.1781
1711.00,0.1990
1710.00,0.2232
1709.00,0.2498
1708.00,0.2775
1707.00,0.3055
1706.00,0.3316
1705.00,0.3495
1704.00,0.3540
1703.00,0.3458
1702.00,0.3262
1701.00,0.2948
1700.00,0.2584
1699.00,0.2276
1698.00,0.2026
1697.00,0.1788
1696.00,0.1555
1695.00,0.1356
1694.00,0.1197
1693.00,0.1058
1692.00,0.0934
1691.00,0.0833
1690.00,0.0756
1689.00,0.0695
1688.00,0.0643
1687.00,0.0602
1686.00,0.0570
1685.00,0.0546
1684.00,0.0534
1683.00,0.0528
1682.00,0.0508
1681.00,0.0479
1680.00,0.0452
1679.00,0.0431
1678.00,0.0411
1677.00,0.0394
1676.00,0.0404
1675.00,0.0400
1674.00,0.0398
1673.00,0.0397
1672.00,0.0397
1671.00,0.0400
1670.00,0.0406
1669.00,0.0415
1668.00,0.0424
1667.00,0.0433
1666.00,0.0442
1665.00,0.0452
1664.00,0.0448
1663.00,0.0464
1662.00,0.0491
1661.00,0.0519
1660.00,0.0542
1659.00,0.0562
1658.00,0.0580
1657.00,0.0597
1656.00,0.0615
1655.00,0.0646
1654.00,0.0714
1653.00,0.0833
1652.00,0.0952
1651.00,0.1006
1650.00,0.1004
1649.00,0.1006
1648.00,0.1055
1647.00,0.1159
1646.00,0.1294
1645.00,0.1421
1644.00,0.1525
1643.00,0.1613
1642.00,0.1706
1641.00,0.1811
1640.00,0.1918
1639.00,0.2015
1638.00,0.2103
1637.00,0.2195
1636.00,0.2297
1635.00,0.2391
1634.00,0.2446
1633.00,0.2453
1632.00,0.2430
1631.00,0.2395
1630.00,0.2358
1629.00,0.2322
1628.00,0.2286
1627.00,0.2249
1626.00,0.2208
1625.00,0.2163
1624.00,0.2119
1623.00,0.2083
1622.00,0.2056
1621.00,0.2028
1620.00,0.1995
1619.00,0.1970
1618.00,0.1964
1617.00,0.1986
1616.00,0.2021
1615.00,0.2046
1614.00,0.2055
1613.00,0.2062
1612.00,0.2080
1611.00,0.2113
1610.00,0.2156
1609.00,0.2208
1608.00,0.2265
1607.00,0.2326
1606.00,0.2389
1605.00,0.2456
1604.00,0.2528
1603.00,0.2604
1602.00,0.2685
1601.00,0.2769
1600.00,0.2855
1599.00,0.2941
1598.00,0.3029
1597.00,0.3120
1596.00,0.3215
1595.00,0.3313
1594.00,0.3412
1593.00,0.3511
1592.00,0.3610
1591.00,0.3708
1590.00,0.3802
1589.00,0.3892
1588.00,0.3974
1587.00,0.4041
1586.00,0.4086
1585.00,0.4105
1584.00,0.4096
1583.00,0.4057
1582.00,0.3994
1581.00,0.3919
1580.00,0.3844
1579.00,0.3783
1578.00,0.3755
1577.00,0.3781
1576.00,0.3860
1575.00,0.3954
1574.00,0.4026
1573.00,0.4078
1572.00,0.4137
1571.00,0.4224
1570.00,0.4343
1569.00,0.4473
1568.00,0.4582
1567.00,0.4651
1566.00,0.4691
1565.00,0.4718
1564.00,0.4734
1563.00,0.4729
1562.00,0.4702
1561.00,0.4665
1560.00,0.4633
1559.00,0.4625
1558.00,0.4620
1557.00,0.4584
1556.00,0.4523
1555.00,0.4457
1554.00,0.4396
1553.00,0.4339
1552.00,0.4279
1551.00,0.4216
1550.00,0.4155
1549.00,0.4092
1548.00,0.4032
1547.00,0.3972
1546.00,0.3908
1545.00,0.3843
1544.00,0.3780
1543.00,0.3717
1542.00,0.3652
1541.00,0.3587
1540.00,0.3523
1539.00,0.3458
1538.00,0.3394
1537.00,0.3332
1536.00,0.3274
1535.00,0.3217
1534.00,0.3159
1533.00,0.3104
1532.00,0.3053
1531.00,0.3004
1530.00,0.2955
1529.00,0.2909
1528.00,0.2866
1527.00,0.2825
1526.00,0.2785
1525.00,0.2747
1524.00,0.2711
1523.00,0.2675
1522.00,0.2639
1521.00,0.2606
1520.00,0.2575
1519.00,0.2541
1518.00,0.2506
1517.00,0.2471
1516.00,0.2438
1515.00,0.2404
1514.00,0.2369
1513.00,0.2334
1512.00,0.2300
1511.00,0.2265
1510.00,0.2229
1509.00,0.2194
1508.00,0.2161
1507.00,0.2127
1506.00,0.2092
1505.00,0.2056
1504.00,0.2021
1503.00,0.1983
1502.00,0.1944
1501.00,0.1897
1500.00,0.1849
1499.00,0.1805
1498.00,0.1766
1497.00,0.1733
1496.00,0.1701
1495.00,0.1659
1494.00,0.1601
1493.00,0.1538
1492.00,0.1482
1491.00,0.1439
1490.00,0.1412
1489.00,0.1399
1488.00,0.1396
1487.00,0.1399
1486.00,0.1411
1485.00,0.1436
1484.00,0.1474
1483.00,0.1526
1482.00,0.1596
1481.00,0.1683
1480.00,0.1777
1479.00,0.1870
1478.00,0.1964
1477.00,0.2062
1476.00,0.2164
1475.00,0.2264
1474.00,0.2364
1473.00,0.2477
1472.00,0.2595
1471.00,0.2697
1470.00,0.2772
1469.00,0.2831
1468.00,0.2888
1467.00,0.2950
1466.00,0.3024
1465.00,0.3113
1464.00,0.3205
1463.00,0.3280
1462.00,0.3329
1461.00,0.3358
1460.00,0.3376
1459.00,0.3387
1458.00,0.3396
1457.00,0.3397
1456.00,0.3372
1455.00,0.3306
1454.00,0.3211
1453.00,0.3111
1452.00,0.3021
1451.00,0.2944
1450.00,0.2879
1449.00,0.2832
1448.00,0.2808
1447.00,0.2805
1446.00,0.2817
1445.00,0.2843
1444.00,0.2885
1443.00,0.2943
1442.00,0.3017
1441.00,0.3102
1440.00,0.3194
1439.00,0.3296
1438.00,0.3427
1437.00,0.3600
1436.00,0.3791
1435.00,0.3948
1434.00,0.4052
1433.00,0.4122
1432.00,0.4172
1431.00,0.4199
1430.00,0.4201
1429.00,0.4179
1428.00,0.4137
1427.00,0.4076
1426.00,0.4003
1425.00,0.3929
1424.00,0.3857
1423.00,0.3783
1422.00,0.3708
1421.00,0.3637
1420.00,0.3572
1419.00,0.3513
1418.00,0.3455
1417.00,0.3392
1416.00,0.3322
1415.00,0.3252
1414.00,0.3186
1413.00,0.3126
1412.00,0.3069
1411.00,0.3014
1410.00,0.2960
1409.00,0.2907
1408.00,0.2854
1407.00,0.2801
1406.00,0.2757
1405.00,0.2710
1404.00,0.2664
1403.00,0.2620
1402.00,0.2576
1401.00,0.2534
1400.00,0.2494
1399.00,0.2455
1398.00,0.2418
1397.00,0.2383
1396.00,0.2348
1395.00,0.2314
1394.00,0.2282
1393.00,0.2250
1392.00,0.2217
1391.00,0.2184
1390.00,0.2151
1389.00,0.2117
1388.00,0.2083
1387.00,0.2049
1386.00,0.2013
1385.00,0.1976
1384.00,0.1944
1383.00,0.1902
1382.00,0.1862
1381.00,0.1825
1380.00,0.1788
1379.00,0.1753
1378.00,0.1717
1377.00,0.1680
1376.00,0.1644
1375.00,0.1611
1374.00,0.1584
1373.00,0.1559
1372.00,0.1534
1371.00,0.1509
1370.00,0.1487
1369.00,0.1471
1368.00,0.1458
1367.00,0.1444
1366.00,0.1427
1365.00,0.1405
1364.00,0.1382
1363.00,0.1360
1362.00,0.1338
1361.00,0.1312
1360.00,0.1282
1359.00,0.1250
1358.00,0.1219
1357.00,0.1190
1356.00,0.1162
1355.00,0.1136
1354.00,0.1111
1353.00,0.1086
1352.00,0.1062
1351.00,0.1038
1350.00,0.1015
1349.00,0.0994
1348.00,0.0973
1347.00,0.0953
1346.00,0.0934
1345.00,0.0916
1344.00,0.0898
1343.00,0.0881
1342.00,0.0866
1341.00,0.0855
1340.00,0.0848
1339.00,0.0843
1338.00,0.0838
1337.00,0.0832
1336.00,0.0829
1335.00,0.0829
1334.00,0.0833
1333.00,0.0839
1332.00,0.0847
1331.00,0.0855
1330.00,0.0862
1329.00,0.0867
1328.00,0.0867
1327.00,0.0861
1326.00,0.0848
1325.00,0.0830
1324.00,0.0809
1323.00,0.0790
1322.00,0.0774
1321.00,0.0760
1320.00,0.0750
1319.00,0.0742
1318.00,0.0737
1317.00,0.0731
1316.00,0.0725
1315.00,0.0721
1314.00,0.0718
1313.00,0.0715
1312.00,0.0713
1311.00,0.0710
1310.00,0.0708
1309.00,0.0706
1308.00,0.0705
1307.00,0.0705
1306.00,0.0708
1305.00,0.0713
1304.00,0.0720
1303.00,0.0731
1302.00,0.0744
1301.00,0.0762
1300.00,0.0782
1299.00,0.0807
1298.00,0.0835
1297.00,0.0865
1296.00,0.0898
1295.00,0.0933
1294.00,0.0972
1293.00,0.1013
1292.00,0.1058
1291.00,0.1108
1290.00,0.1163
1289.00,0.1221
1288.00,0.1285
1287.00,0.1353
1286.00,0.1426
1285.00,0.1503
1284.00,0.1584
1283.00,0.1671
1282.00,0.1762
1281.00,0.1858
1280.00,0.1958
1279.00,0.2062
1278.00,0.2170
1277.00,0.2282
1276.00,0.2399
1275.00,0.2519
1274.00,0.2644
1273.00,0.2772
1272.00,0.2907
1271.00,0.3046
1270.00,0.3190
1269.00,0.3339
1268.00,0.3492
1267.00,0.3647
1266.00,0.3801
1265.00,0.3948
1264.00,0.4083
1263.00,0.4197
1262.00,0.4284
1261.00,0.4341
1260.00,0.4367
1259.00,0.4365
1258.00,0.4339
1257.00,0.4296
1256.00,0.4241
1255.00,0.4179
1254.00,0.4112
1253.00,0.4042
1252.00,0.3971
1251.00,0.3898
1250.00,0.3824
1249.00,0.3747
1248.00,0.3669
1247.00,0.3590
1246.00,0.3509
1245.00,0.3427
1244.00,0.3346
1243.00,0.3264
1242.00,0.3182
1241.00,0.3102
1240.00,0.3024
1239.00,0.2949
1238.00,0.2877
1237.00,0.2809
1236.00,0.2745
1235.00,0.2685
1234.00,0.2631
1233.00,0.2582
1232.00,0.2540
1231.00,0.2509
1230.00,0.2489
1229.00,0.2487
1228.00,0.2511
1227.00,0.2571
1226.00,0.2676
1225.00,0.2834
1224.00,0.3044
1223.00,0.3288
1222.00,0.3537
1221.00,0.3754
1220.00,0.3907
1219.00,0.3978
1218.00,0.3972
1217.00,0.3909
1216.00,0.3812
1215.00,0.3702
1214.00,0.3590
1213.00,0.3483
1212.00,0.3385
1211.00,0.3296
1210.00,0.3216
1209.00,0.3144
1208.00,0.3080
1207.00,0.3023
1206.00,0.2972
1205.00,0.2929
1204.00,0.2892
1203.00,0.2861
1202.00,0.2836
1201.00,0.2816
1200.00,0.2800
1199.00,0.2786
1198.00,0.2775
1197.00,0.2766
1196.00,0.2757
1195.00,0.2748
1194.00,0.2736
1193.00,0.2720
1192.00,0.2699
1191.00,0.2673
1190.00,0.2643
1189.00,0.2610
1188.00,0.2576
1187.00,0.2544
1186.00,0.2513
1185.00,0.2485
1184.00,0.2459
1183.00,0.2436
1182.00,0.2415
1181.00,0.2396
1180.00,0.2379
1179.00,0.2363
1178.00,0.2348
1177.00,0.2333
1176.00,0.2317
1175.00,0.2301
1174.00,0.2283
1173.00,0.2264
1172.00,0.2244
1171.00,0.2223
1170.00,0.2202
1169.00,0.2182
1168.00,0.2161
1167.00,0.2141
1166.00,0.2121
1165.00,0.2101
1164.00,0.2082
1163.00,0.2064
1162.00,0.2046
1161.00,0.2028
1160.00,0.2010
1159.00,0.1992
1158.00,0.1974
1157.00,0.1956
1156.00,0.1937
1155.00,0.1919
1154.00,0.1900
1153.00,0.1882
1152.00,0.1865
1151.00,0.1848
1150.00,0.1831
1149.00,0.1815
1148.00,0.1800
1147.00,0.1786
1146.00,0.1772
1145.00,0.1758
1144.00,0.1746
1143.00,0.1734
1142.00,0.1723
1141.00,0.1712
1140.00,0.1701
1139.00,0.1690
1138.00,0.1680
1137.00,0.1670
1136.00,0.1660
1135.00,0.1650
1134.00,0.1640
1133.00,0.1629
1132.00,0.1619
1131.00,0.1608
1130.00,0.1598
1129.00,0.1588
1128.00,0.1577
1127.00,0.1568
1126.00,0.1558
1125.00,0.1549
1124.00,0.1539
1123.00,0.1530
1122.00,0.1522
1121.00,0.1514
1120.00,0.1506
1119.00,0.1498
1118.00,0.1491
1117.00,0.1484
1116.00,0.1477
1115.00,0.1470
1114.00,0.1463
1113.00,0.1457
1112.00,0.1451
1111.00,0.1445
1110.00,0.1440
1109.00,0.1433
1108.00,0.1427
1107.00,0.1421
1106.00,0.1416
1105.00,0.1411
1104.00,0.1406
1103.00,0.1402
1102.00,0.1398
1101.00,0.1394
1100.00,0.1389
1099.00,0.1385
1098.00,0.1381
1097.00,0.1376
1096.00,0.1371
1095.00,0.1367
1094.00,0.1363
1093.00,0.1358
1092.00,0.1354
1091.00,0.1349
1090.00,0.1344
1089.00,0.1338
1088.00,0.1333
1087.00,0.1327
1086.00,0.1321
1085.00,0.1315
1084.00,0.1308
1083.00,0.1303
1082.00,0.1297
1081.00,0.1291
1080.00,0.1286
1079.00,0.1281
1078.00,0.1277
1077.00,0.1272
1076.00,0.1268
1075.00,0.1264
1074.00,0.1261
1073.00,0.1258
1072.00,0.1254
1071.00,0.1251
1070.00,0.1248
1069.00,0.1245
1068.00,0.1243
1067.00,0.1242
1066.00,0.1241
1065.00,0.1239
1064.00,0.1237
1063.00,0.1235
1062.00,0.1234
1061.00,0.1233
1060.00,0.1231
1059.00,0.1230
1058.00,0.1229
1057.00,0.1227
1056.00,0.1225
1055.00,0.1223
1054.00,0.1222
1053.00,0.1220
1052.00,0.1218
1051.00,0.1217
1050.00,0.1216
1049.00,0.1216
1048.00,0.1215
1047.00,0.1214
1046.00,0.1213
1045.00,0.1212
1044.00,0.1210
1043.00,0.1209
1042.00,0.1209
1041.00,0.1209
1040.00,0.1209
1039.00,0.1210
1038.00,0.1212
1037.00,0.1214
1036.00,0.1217
1035.00,0.1221
1034.00,0.1225
1033.00,0.1231
1032.00,0.1238
1031.00,0.1246
1030.00,0.1257
1029.00,0.1272
1028.00,0.1292
1027.00,0.1319
1026.00,0.1353
1025.00,0.1388
1024.00,0.1415
1023.00,0.1427
1022.00,0.1423
1021.00,0.1410
1020.00,0.1397
1019.00,0.1390
1018.00,0.1391
1017.00,0.1400
1016.00,0.1412
1015.00,0.1428
1014.00,0.1447
1013.00,0.1469
1012.00,0.1493
1011.00,0.1520
1010.00,0.1549
1009.00,0.1580
1008.00,0.1614
1007.00,0.1651
1006.00,0.1692
1005.00,0.1736
1004.00,0.1782
1003.00,0.1832
1002.00,0.1884
1001.00,0.1937
1000.00,0.1992
999.00,0.2046
998.00,0.2099
997.00,0.2151
996.00,0.2199
995.00,0.2245
994.00,0.2287
993.00,0.2324
992.00,0.2357
991.00,0.2386
990.00,0.2409
989.00,0.2428
988.00,0.2443
987.00,0.2453
986.00,0.2460
985.00,0.2463
984.00,0.2463
983.00,0.2460
982.00,0.2456
981.00,0.2450
980.00,0.2443
979.00,0.2435
978.00,0.2425
977.00,0.2413
976.00,0.2400
975.00,0.2384
974.00,0.2367
973.00,0.2346
972.00,0.2323
971.00,0.2298
970.00,0.2269
969.00,0.2238
968.00,0.2204
967.00,0.2169
966.00,0.2132
965.00,0.2094
964.00,0.2057
963.00,0.2021
962.00,0.1987
961.00,0.1956
960.00,0.1932
959.00,0.1916
958.00,0.1911
957.00,0.1921
956.00,0.1953
955.00,0.2014
954.00,0.2108
953.00,0.2236
952.00,0.2391
951.00,0.2555
950.00,0.2704
949.00,0.2814
948.00,0.2873
947.00,0.2882
946.00,0.2856
945.00,0.2813
944.00,0.2767
943.00,0.2728
942.00,0.2700
941.00,0.2683
940.00,0.2678
939.00,0.2684
938.00,0.2700
937.00,0.2725
936.00,0.2758
935.00,0.2799
934.00,0.2845
933.00,0.2896
932.00,0.2949
931.00,0.3006
930.00,0.3063
929.00,0.3121
928.00,0.3180
927.00,0.3237
926.00,0.3292
925.00,0.3345
924.00,0.3396
923.00,0.3443
922.00,0.3487
921.00,0.3526
920.00,0.3562
919.00,0.3592
918.00,0.3617
917.00,0.3637
916.00,0.3651
915.00,0.3659
914.00,0.3660
913.00,0.3654
912.00,0.3642
911.00,0.3622
910.00,0.3594
909.00,0.3560
908.00,0.3518
907.00,0.3469
906.00,0.3411
905.00,0.3346
904.00,0.3274
903.00,0.3196
902.00,0.3111
901.00,0.3021
900.00,0.2924
899.00,0.2823
898.00,0.2718
897.00,0.2610
896.00,0.2502
895.00,0.2393
894.00,0.2286
893.00,0.2180
892.00,0.2078
891.00,0.1979
890.00,0.1885
889.00,0.1797
888.00,0.1715
887.00,0.1640
886.00,0.1576
885.00,0.1526
884.00,0.1498
883.00,0.1500
882.00,0.1547
881.00,0.1649
880.00,0.1810
879.00,0.2021
878.00,0.2261
877.00,0.2505
876.00,0.2737
875.00,0.2946
874.00,0.3128
873.00,0.3282
872.00,0.3413
871.00,0.3533
870.00,0.3656
869.00,0.3807
868.00,0.4011
867.00,0.4297
866.00,0.4686
865.00,0.5174
864.00,0.5715
863.00,0.6219
862.00,0.6587
861.00,0.6760
860.00,0.6757
859.00,0.6639
858.00,0.6469
857.00,0.6285
856.00,0.6104
855.00,0.5931
854.00,0.5767
853.00,0.5614
852.00,0.5469
851.00,0.5330
850.00,0.5197
849.00,0.5070
848.00,0.4948
847.00,0.4831
846.00,0.4718
845.00,0.4609
844.00,0.4503
843.00,0.4399
842.00,0.4297
841.00,0.4198
840.00,0.4103
839.00,0.4011
838.00,0.3921
837.00,0.3832
836.00,0.3745
835.00,0.3660
834.00,0.3577
833.00,0.3496
832.00,0.3417
831.00,0.3340
830.00,0.3265
829.00,0.3191
828.00,0.3120
827.00,0.3049
826.00,0.2980
825.00,0.2912
824.00,0.2847
823.00,0.2783
822.00,0.2720
821.00,0.2660
820.00,0.2601
819.00,0.2544
818.00,0.2487
817.00,0.2432
816.00,0.2379
815.00,0.2327
814.00,0.2276
813.00,0.2225
812.00,0.2175
811.00,0.2124
810.00,0.2075
809.00,0.2025
808.00,0.1977
807.00,0.1930
806.00,0.1883
805.00,0.1837
804.00,0.1791
803.00,0.1745
802.00,0.1699
801.00,0.1653
800.00,0.1607
799.00,0.1561
798.00,0.1518
797.00,0.1483
796.00,0.1464
795.00,0.1481
794.00,0.1558
793.00,0.1721
792.00,0.1978
791.00,0.2310
790.00,0.2673
789.00,0.3023
788.00,0.3327
787.00,0.3559
786.00,0.3686
785.00,0.3687
784.00,0.3574
783.00,0.3391
782.00,0.3187
781.00,0.2996
780.00,0.2831
779.00,0.2692
778.00,0.2575
777.00,0.2471
776.00,0.2377
775.00,0.2294
774.00,0.2220
773.00,0.2156
772.00,0.2098
771.00,0.2046
770.00,0.1998
769.00,0.1955
768.00,0.1915
767.00,0.1878
766.00,0.1843
765.00,0.1811
764.00,0.1779
763.00,0.1749
762.00,0.1722
761.00,0.1695
760.00,0.1669
759.00,0.1644
758.00,0.1619
757.00,0.1596
756.00,0.1572
755.00,0.1550
754.00,0.1529
753.00,0.1508
752.00,0.1488
751.00,0.1468
750.00,0.1448
749.00,0.1430
748.00,0.1413
747.00,0.1396
746.00,0.1380
745.00,0.1365
744.00,0.1350
743.00,0.1335
742.00,0.1322
741.00,0.1308
740.00,0.1294
739.00,0.1282
738.00,0.1270
737.00,0.1258
736.00,0.1246
735.00,0.1235
734.00,0.1225
733.00,0.1215
732.00,0.1204
731.00,0.1193
730.00,0.1182
729.00,0.1172
728.00,0.1162
727.00,0.1151
726.00,0.1141
725.00,0.1132
724.00,0.1121
723.00,0.1111
722.00,0.1102
721.00,0.1092
720.00,0.1082
719.00,0.1072
718.00,0.1063
717.00,0.1053
716.00,0.1043
715.00,0.1034
714.00,0.1022
713.00,0.1013
712.00,0.1002
711.00,0.0992
710.00,0.0982
709.00,0.0972
708.00,0.0961
707.00,0.0951
706.00,0.0941
705.00,0.0931
704.00,0.0920
703.00,0.0909
702.00,0.0898
701.00,0.0886
700.00,0.0874
699.00,0.0862
698.00,0.0850
697.00,0.0837
696.00,0.0825
695.00,0.0813
694.00,0.0801
693.00,0.0788
692.00,0.0775
691.00,0.0762
690.00,0.0750
689.00,0.0738
688.00,0.0727
687.00,0.0716
686.00,0.0704
685.00,0.0692
684.00,0.0694
683.00,0.0682
682.00,0.0671
681.00,0.0660
680.00,0.0649
679.00,0.0638
678.00,0.0627
677.00,0.0617
676.00,0.0607
675.00,0.0597
674.00,0.0588
673.00,0.0580
672.00,0.0573
671.00,0.0566
670.00,0.0560
669.00,0.0556
668.00,0.0578
667.00,0.0582
666.00,0.0566
665.00,0.0553
664.00,0.0550
663.00,0.0557
662.00,0.0570
661.00,0.0587
660.00,0.0608
659.00,0.0634
658.00,0.0666
657.00,0.0702
656.00,0.0744
655.00,0.0791
654.00,0.0844
653.00,0.0901
652.00,0.0964
651.00,0.1030
650.00,0.1099
649.00,0.1170
648.00,0.1245
647.00,0.1322
646.00,0.1402
645.00,0.1486
644.00,0.1578
643.00,0.1682
642.00,0.1799
641.00,0.1936
640.00,0.2097
639.00,0.2284
638.00,0.2495
637.00,0.2725
636.00,0.2967
635.00,0.3197
634.00,0.3379
633.00,0.3486
632.00,0.3499
631.00,0.3413
630.00,0.3241
629.00,0.3020
628.00,0.2789
627.00,0.2579
626.00,0.2417
625.00,0.2323
624.00,0.2304
623.00,0.2352
622.00,0.2446
621.00,0.2564
620.00,0.2688
619.00,0.2805
618.00,0.2914
617.00,0.3023
616.00,0.3140
615.00,0.3265
614.00,0.3396
613.00,0.3532
612.00,0.3671
611.00,0.3800
610.00,0.3903
609.00,0.3974
608.00,0.4013
607.00,0.4018
606.00,0.3991
605.00,0.3939
604.00,0.3871
603.00,0.3789
602.00,0.3696
601.00,0.3602
600.00,0.3520
599.00,0.3461
598.00,0.3437
597.00,0.3460
596.00,0.3524
595.00,0.3591
594.00,0.3607
593.00,0.3537
592.00,0.3385
591.00,0.3187
590.00,0.2983
589.00,0.2803
588.00,0.2656
587.00,0.2536
586.00,0.2435
585.00,0.2350
584.00,0.2277
583.00,0.2212
582.00,0.2153
581.00,0.2098
580.00,0.2049
579.00,0.2006
578.00,0.1966
577.00,0.1929
576.00,0.1895
575.00,0.1864
574.00,0.1833
573.00,0.1805
572.00,0.1780
571.00,0.1758
570.00,0.1737
569.00,0.1717
568.00,0.1698
567.00,0.1680
566.00,0.1662
565.00,0.1645
564.00,0.1628
563.00,0.1613
562.00,0.1599
561.00,0.1584
560.00,0.1570
559.00,0.1557
558.00,0.1545
557.00,0.1533
556.00,0.1521
555.00,0.1509
554.00,0.1494
553.00,0.1480
552.00,0.1466
551.00,0.1453
550.00,0.1441
549.00,0.1428
548.00,0.1414
547.00,0.1401
546.00,0.1389
545.00,0.1378
544.00,0.1366
543.00,0.1354
542.00,0.1341
541.00,0.1327
540.00,0.1315
539.00,0.1303
538.00,0.1292
537.00,0.1280
536.00,0.1268
535.00,0.1257
534.00,0.1246
533.00,0.1236
532.00,0.1226
531.00,0.1216
530.00,0.1206
529.00,0.1194
528.00,0.1183
527.00,0.1173
526.00,0.1165
525.00,0.1157
524.00,0.1150
523.00,0.1142
522.00,0.1134
521.00,0.1125
520.00,0.1117
519.00,0.1110
518.00,0.1104
517.00,0.1098
516.00,0.1090
515.00,0.1081
514.00,0.1073
513.00,0.1067
512.00,0.1062
511.00,0.1058
510.00,0.1053
509.00,0.1047
508.00,0.1039
507.00,0.1031
506.00,0.1025
505.00,0.1019
504.00,0.1015
503.00,0.1012
502.00,0.1008
501.00,0.1002
500.00,0.0993
499.00,0.0985
498.00,0.0979
497.00,0.0974
496.00,0.0970
495.00,0.0966
494.00,0.0963
493.00,0.0960
492.00,0.0957
491.00,0.0954
490.00,0.0951
489.00,0.0947
488.00,0.0942
487.00,0.0938
486.00,0.0934
485.00,0.0929
484.00,0.0925
483.00,0.0925
482.00,0.0926
481.00,0.0927
480.00,0.0926
479.00,0.0926
478.00,0.0925
477.00,0.0923
476.00,0.0920
475.00,0.0915
474.00,0.0910
473.00,0.0905
472.00,0.0902
471.00,0.0898
470.00,0.0896
469.00,0.0894
468.00,0.0891
467.00,0.0886
466.00,0.0880
465.00,0.0873
464.00,0.0869
463.00,0.0869
462.00,0.0869
461.00,0.0865
460.00,0.0857
459.00,0.0851
458.00,0.0846
457.00,0.0840
456.00,0.0831
455.00,0.0822
454.00,0.0818
453.00,0.0814
452.00,0.0807
451.00,0.0798
450.00,0.0789
449.00,0.0783
448.00,0.0777
447.00,0.0772
446.00,0.0766
445.00,0.0759
444.00,0.0752
443.00,0.0745
442.00,0.0736
441.00,0.0724
440.00,0.0711
439.00,0.0700
438.00,0.0694
437.00,0.0690
436.00,0.0686
435.00,0.0682
434.00,0.0676
433.00,0.0667
432.00,0.0657
431.00,0.0649
430.00,0.0645
429.00,0.0642
428.00,0.0639
427.00,0.0639
426.00,0.0645
425.00,0.0655
424.00,0.0665
423.00,0.0674
422.00,0.0686
421.00,0.0706
420.00,0.0740
419.00,0.0797
418.00,0.0867
417.00,0.0938
416.00,0.1016
415.00,0.1116
414.00,0.1247
413.00,0.1411
412.00,0.1606
411.00,0.1829
410.00,0.2071
409.00,0.2314
408.00,0.2545
407.00,0.2741
406.00,0.2877
405.00,0.2946
404.00,0.2961
403.00,0.2929
402.00,0.2852
401.00,0.2753
400.00,0.2649
