Created as New Dataset,Sample 846 By YargerLab Date Saturday, April 18 2026
cm-1,A
4000.00,0.0135
3999.00,0.0135
3998.00,0.0135
3997.00,0.0135
3996.00,0.0134
3995.00,0.0134
3994.00,0.0134
3993.00,0.0135
3992.00,0.0135
3991.00,0.0135
3990.00,0.0135
3989.00,0.0135
3988.00,0.0135
3987.00,0.0134
3986.00,0.0134
3985.00,0.0134
3984.00,0.0134
3983.00,0.0134
3982.00,0.0133
3981.00,0.0133
3980.00,0.0133
3979.00,0.0133
3978.00,0.0133
3977.00,0.0133
3976.00,0.0133
3975.00,0.0133
3974.00,0.0133
3973.00,0.0133
3972.00,0.0133
3971.00,0.0133
3970.00,0.0133
3969.00,0.0133
3968.00,0.0133
3967.00,0.0133
3966.00,0.0133
3965.00,0.0133
3964.00,0.0133
3963.00,0.0133
3962.00,0.0133
3961.00,0.0133
3960.00,0.0133
3959.00,0.0133
3958.00,0.0133
3957.00,0.0133
3956.00,0.0133
3955.00,0.0133
3954.00,0.0133
3953.00,0.0133
3952.00,0.0133
3951.00,0.0133
3950.00,0.0132
3949.00,0.0132
3948.00,0.0132
3947.00,0.0132
3946.00,0.0132
3945.00,0.0132
3944.00,0.0132
3943.00,0.0132
3942.00,0.0132
3941.00,0.0132
3940.00,0.0132
3939.00,0.0132
3938.00,0.0132
3937.00,0.0132
3936.00,0.0132
3935.00,0.0132
3934.00,0.0132
3933.00,0.0133
3932.00,0.0133
3931.00,0.0133
3930.00,0.0133
3929.00,0.0133
3928.00,0.0133
3927.00,0.0132
3926.00,0.0132
3925.00,0.0132
3924.00,0.0132
3923.00,0.0132
3922.00,0.0132
3921.00,0.0131
3920.00,0.0131
3919.00,0.0131
3918.00,0.0131
3917.00,0.0131
3916.00,0.0131
3915.00,0.0131
3914.00,0.0131
3913.00,0.0131
3912.00,0.0131
3911.00,0.0130
3910.00,0.0130
3909.00,0.0130
3908.00,0.0130
3907.00,0.0130
3906.00,0.0130
3905.00,0.0129
3904.00,0.0129
3903.00,0.0129
3902.00,0.0129
3901.00,0.0129
3900.00,0.0129
3899.00,0.0129
3898.00,0.0129
3897.00,0.0129
3896.00,0.0129
3895.00,0.0130
3894.00,0.0130
3893.00,0.0130
3892.00,0.0130
3891.00,0.0130
3890.00,0.0129
3889.00,0.0129
3888.00,0.0129
3887.00,0.0129
3886.00,0.0129
3885.00,0.0130
3884.00,0.0130
3883.00,0.0130
3882.00,0.0130
3881.00,0.0130
3880.00,0.0130
3879.00,0.0129
3878.00,0.0130
3877.00,0.0130
3876.00,0.0130
3875.00,0.0130
3874.00,0.0130
3873.00,0.0130
3872.00,0.0130
3871.00,0.0130
3870.00,0.0130
3869.00,0.0130
3868.00,0.0129
3867.00,0.0129
3866.00,0.0129
3865.00,0.0129
3864.00,0.0129
3863.00,0.0129
3862.00,0.0129
3861.00,0.0129
3860.00,0.0129
3859.00,0.0129
3858.00,0.0129
3857.00,0.0129
3856.00,0.0129
3855.00,0.0129
3854.00,0.0129
3853.00,0.0129
3852.00,0.0129
3851.00,0.0129
3850.00,0.0129
3849.00,0.0130
3848.00,0.0130
3847.00,0.0130
3846.00,0.0130
3845.00,0.0130
3844.00,0.0130
3843.00,0.0130
3842.00,0.0130
3841.00,0.0130
3840.00,0.0129
3839.00,0.0129
3838.00,0.0129
3837.00,0.0129
3836.00,0.0129
3835.00,0.0129
3834.00,0.0129
3833.00,0.0129
3832.00,0.0129
3831.00,0.0129
3830.00,0.0128
3829.00,0.0128
3828.00,0.0128
3827.00,0.0128
3826.00,0.0128
3825.00,0.0128
3824.00,0.0128
3823.00,0.0127
3822.00,0.0127
3821.00,0.0127
3820.00,0.0126
3819.00,0.0126
3818.00,0.0126
3817.00,0.0126
3816.00,0.0126
3815.00,0.0126
3814.00,0.0126
3813.00,0.0126
3812.00,0.0126
3811.00,0.0126
3810.00,0.0125
3809.00,0.0125
3808.00,0.0125
3807.00,0.0125
3806.00,0.0125
3805.00,0.0125
3804.00,0.0125
3803.00,0.0125
3802.00,0.0125
3801.00,0.0125
3800.00,0.0125
3799.00,0.0125
3798.00,0.0125
3797.00,0.0125
3796.00,0.0124
3795.00,0.0124
3794.00,0.0124
3793.00,0.0125
3792.00,0.0125
3791.00,0.0125
3790.00,0.0125
3789.00,0.0125
3788.00,0.0125
3787.00,0.0125
3786.00,0.0125
3785.00,0.0125
3784.00,0.0125
3783.00,0.0124
3782.00,0.0124
3781.00,0.0124
3780.00,0.0124
3779.00,0.0124
3778.00,0.0124
3777.00,0.0124
3776.00,0.0124
3775.00,0.0124
3774.00,0.0124
3773.00,0.0124
3772.00,0.0124
3771.00,0.0124
3770.00,0.0124
3769.00,0.0124
3768.00,0.0125
3767.00,0.0125
3766.00,0.0125
3765.00,0.0125
3764.00,0.0124
3763.00,0.0124
3762.00,0.0124
3761.00,0.0124
3760.00,0.0124
3759.00,0.0124
3758.00,0.0124
3757.00,0.0124
3756.00,0.0124
3755.00,0.0123
3754.00,0.0123
3753.00,0.0122
3752.00,0.0122
3751.00,0.0122
3750.00,0.0122
3749.00,0.0122
3748.00,0.0121
3747.00,0.0121
3746.00,0.0120
3745.00,0.0120
3744.00,0.0119
3743.00,0.0118
3742.00,0.0117
3741.00,0.0116
3740.00,0.0116
3739.00,0.0115
3738.00,0.0115
3737.00,0.0114
3736.00,0.0114
3735.00,0.0113
3734.00,0.0113
3733.00,0.0113
3732.00,0.0113
3731.00,0.0113
3730.00,0.0113
3729.00,0.0113
3728.00,0.0114
3727.00,0.0114
3726.00,0.0114
3725.00,0.0115
3724.00,0.0115
3723.00,0.0116
3722.00,0.0116
3721.00,0.0116
3720.00,0.0117
3719.00,0.0117
3718.00,0.0118
3717.00,0.0119
3716.00,0.0120
3715.00,0.0120
3714.00,0.0120
3713.00,0.0119
3712.00,0.0118
3711.00,0.0117
3710.00,0.0117
3709.00,0.0116
3708.00,0.0116
3707.00,0.0116
3706.00,0.0116
3705.00,0.0116
3704.00,0.0116
3703.00,0.0115
3702.00,0.0115
3701.00,0.0115
3700.00,0.0115
3699.00,0.0115
3698.00,0.0116
3697.00,0.0116
3696.00,0.0116
3695.00,0.0116
3694.00,0.0116
3693.00,0.0116
3692.00,0.0116
3691.00,0.0116
3690.00,0.0116
3689.00,0.0117
3688.00,0.0117
3687.00,0.0117
3686.00,0.0117
3685.00,0.0117
3684.00,0.0117
3683.00,0.0118
3682.00,0.0118
3681.00,0.0118
3680.00,0.0118
3679.00,0.0118
3678.00,0.0117
3677.00,0.0117
3676.00,0.0117
3675.00,0.0117
3674.00,0.0117
3673.00,0.0117
3672.00,0.0118
3671.00,0.0118
3670.00,0.0118
3669.00,0.0118
3668.00,0.0118
3667.00,0.0118
3666.00,0.0118
3665.00,0.0119
3664.00,0.0119
3663.00,0.0119
3662.00,0.0119
3661.00,0.0119
3660.00,0.0119
3659.00,0.0119
3658.00,0.0119
3657.00,0.0118
3656.00,0.0118
3655.00,0.0118
3654.00,0.0117
3653.00,0.0117
3652.00,0.0117
3651.00,0.0117
3650.00,0.0117
3649.00,0.0117
3648.00,0.0116
3647.00,0.0116
3646.00,0.0116
3645.00,0.0115
3644.00,0.0115
3643.00,0.0115
3642.00,0.0115
3641.00,0.0115
3640.00,0.0114
3639.00,0.0113
3638.00,0.0113
3637.00,0.0112
3636.00,0.0112
3635.00,0.0112
3634.00,0.0112
3633.00,0.0112
3632.00,0.0111
3631.00,0.0111
3630.00,0.0111
3629.00,0.0111
3628.00,0.0111
3627.00,0.0111
3626.00,0.0111
3625.00,0.0111
3624.00,0.0112
3623.00,0.0112
3622.00,0.0112
3621.00,0.0113
3620.00,0.0113
3619.00,0.0114
3618.00,0.0114
3617.00,0.0115
3616.00,0.0116
3615.00,0.0116
3614.00,0.0117
3613.00,0.0117
3612.00,0.0117
3611.00,0.0116
3610.00,0.0116
3609.00,0.0115
3608.00,0.0115
3607.00,0.0114
3606.00,0.0113
3605.00,0.0113
3604.00,0.0113
3603.00,0.0113
3602.00,0.0113
3601.00,0.0112
3600.00,0.0112
3599.00,0.0112
3598.00,0.0112
3597.00,0.0112
3596.00,0.0113
3595.00,0.0113
3594.00,0.0113
3593.00,0.0113
3592.00,0.0113
3591.00,0.0113
3590.00,0.0113
3589.00,0.0113
3588.00,0.0113
3587.00,0.0113
3586.00,0.0113
3585.00,0.0113
3584.00,0.0113
3583.00,0.0114
3582.00,0.0114
3581.00,0.0114
3580.00,0.0114
3579.00,0.0114
3578.00,0.0114
3577.00,0.0114
3576.00,0.0114
3575.00,0.0114
3574.00,0.0114
3573.00,0.0114
3572.00,0.0115
3571.00,0.0115
3570.00,0.0115
3569.00,0.0115
3568.00,0.0115
3567.00,0.0114
3566.00,0.0114
3565.00,0.0115
3564.00,0.0115
3563.00,0.0115
3562.00,0.0115
3561.00,0.0115
3560.00,0.0115
3559.00,0.0115
3558.00,0.0115
3557.00,0.0115
3556.00,0.0115
3555.00,0.0116
3554.00,0.0116
3553.00,0.0116
3552.00,0.0116
3551.00,0.0116
3550.00,0.0116
3549.00,0.0116
3548.00,0.0116
3547.00,0.0116
3546.00,0.0115
3545.00,0.0115
3544.00,0.0115
3543.00,0.0116
3542.00,0.0116
3541.00,0.0116
3540.00,0.0116
3539.00,0.0116
3538.00,0.0116
3537.00,0.0116
3536.00,0.0116
3535.00,0.0116
3534.00,0.0116
3533.00,0.0116
3532.00,0.0116
3531.00,0.0116
3530.00,0.0116
3529.00,0.0116
3528.00,0.0116
3527.00,0.0116
3526.00,0.0116
3525.00,0.0115
3524.00,0.0115
3523.00,0.0115
3522.00,0.0116
3521.00,0.0116
3520.00,0.0116
3519.00,0.0116
3518.00,0.0116
3517.00,0.0116
3516.00,0.0116
3515.00,0.0116
3514.00,0.0116
3513.00,0.0116
3512.00,0.0116
3511.00,0.0117
3510.00,0.0117
3509.00,0.0116
3508.00,0.0116
3507.00,0.0116
3506.00,0.0116
3505.00,0.0116
3504.00,0.0115
3503.00,0.0115
3502.00,0.0115
3501.00,0.0116
3500.00,0.0116
3499.00,0.0116
3498.00,0.0117
3497.00,0.0117
3496.00,0.0117
3495.00,0.0117
3494.00,0.0117
3493.00,0.0117
3492.00,0.0117
3491.00,0.0117
3490.00,0.0117
3489.00,0.0117
3488.00,0.0117
3487.00,0.0117
3486.00,0.0117
3485.00,0.0118
3484.00,0.0118
3483.00,0.0118
3482.00,0.0118
3481.00,0.0118
3480.00,0.0118
3479.00,0.0118
3478.00,0.0119
3477.00,0.0119
3476.00,0.0119
3475.00,0.0119
3474.00,0.0119
3473.00,0.0119
3472.00,0.0119
3471.00,0.0119
3470.00,0.0119
3469.00,0.0119
3468.00,0.0119
3467.00,0.0120
3466.00,0.0120
3465.00,0.0120
3464.00,0.0121
3463.00,0.0121
3462.00,0.0121
3461.00,0.0121
3460.00,0.0121
3459.00,0.0121
3458.00,0.0122
3457.00,0.0122
3456.00,0.0122
3455.00,0.0122
3454.00,0.0122
3453.00,0.0122
3452.00,0.0122
3451.00,0.0122
3450.00,0.0122
3449.00,0.0123
3448.00,0.0123
3447.00,0.0123
3446.00,0.0124
3445.00,0.0124
3444.00,0.0124
3443.00,0.0124
3442.00,0.0124
3441.00,0.0124
3440.00,0.0124
3439.00,0.0124
3438.00,0.0123
3437.00,0.0123
3436.00,0.0123
3435.00,0.0124
3434.00,0.0125
3433.00,0.0125
3432.00,0.0126
3431.00,0.0126
3430.00,0.0126
3429.00,0.0127
3428.00,0.0128
3427.00,0.0128
3426.00,0.0129
3425.00,0.0130
3424.00,0.0130
3423.00,0.0131
3422.00,0.0131
3421.00,0.0132
3420.00,0.0133
3419.00,0.0133
3418.00,0.0134
3417.00,0.0134
3416.00,0.0134
3415.00,0.0134
3414.00,0.0134
3413.00,0.0134
3412.00,0.0134
3411.00,0.0134
3410.00,0.0134
3409.00,0.0135
3408.00,0.0135
3407.00,0.0136
3406.00,0.0136
3405.00,0.0135
3404.00,0.0134
3403.00,0.0132
3402.00,0.0130
3401.00,0.0129
3400.00,0.0130
3399.00,0.0131
3398.00,0.0133
3397.00,0.0133
3396.00,0.0133
3395.00,0.0132
3394.00,0.0131
3393.00,0.0130
3392.00,0.0130
3391.00,0.0130
3390.00,0.0131
3389.00,0.0133
3388.00,0.0133
3387.00,0.0133
3386.00,0.0133
3385.00,0.0133
3384.00,0.0133
3383.00,0.0133
3382.00,0.0133
3381.00,0.0133
3380.00,0.0133
3379.00,0.0133
3378.00,0.0133
3377.00,0.0133
3376.00,0.0133
3375.00,0.0133
3374.00,0.0133
3373.00,0.0133
3372.00,0.0132
3371.00,0.0132
3370.00,0.0132
3369.00,0.0132
3368.00,0.0132
3367.00,0.0133
3366.00,0.0133
3365.00,0.0134
3364.00,0.0134
3363.00,0.0135
3362.00,0.0135
3361.00,0.0135
3360.00,0.0135
3359.00,0.0136
3358.00,0.0136
3357.00,0.0137
3356.00,0.0137
3355.00,0.0137
3354.00,0.0137
3353.00,0.0137
3352.00,0.0137
3351.00,0.0137
3350.00,0.0138
3349.00,0.0139
3348.00,0.0139
3347.00,0.0140
3346.00,0.0140
3345.00,0.0140
3344.00,0.0141
3343.00,0.0141
3342.00,0.0141
3341.00,0.0142
3340.00,0.0142
3339.00,0.0142
3338.00,0.0142
3337.00,0.0142
3336.00,0.0143
3335.00,0.0144
3334.00,0.0144
3333.00,0.0145
3332.00,0.0145
3331.00,0.0145
3330.00,0.0146
3329.00,0.0146
3328.00,0.0146
3327.00,0.0146
3326.00,0.0147
3325.00,0.0147
3324.00,0.0148
3323.00,0.0148
3322.00,0.0149
3321.00,0.0149
3320.00,0.0150
3319.00,0.0151
3318.00,0.0151
3317.00,0.0152
3316.00,0.0153
3315.00,0.0154
3314.00,0.0155
3313.00,0.0156
3312.00,0.0156
3311.00,0.0157
3310.00,0.0157
3309.00,0.0157
3308.00,0.0158
3307.00,0.0159
3306.00,0.0160
3305.00,0.0162
3304.00,0.0164
3303.00,0.0166
3302.00,0.0168
3301.00,0.0170
3300.00,0.0171
3299.00,0.0172
3298.00,0.0173
3297.00,0.0174
3296.00,0.0175
3295.00,0.0176
3294.00,0.0177
3293.00,0.0178
3292.00,0.0179
3291.00,0.0181
3290.00,0.0183
3289.00,0.0185
3288.00,0.0187
3287.00,0.0188
3286.00,0.0189
3285.00,0.0190
3284.00,0.0190
3283.00,0.0191
3282.00,0.0192
3281.00,0.0193
3280.00,0.0193
3279.00,0.0194
3278.00,0.0194
3277.00,0.0194
3276.00,0.0195
3275.00,0.0195
3274.00,0.0195
3273.00,0.0194
3272.00,0.0194
3271.00,0.0195
3270.00,0.0196
3269.00,0.0199
3268.00,0.0201
3267.00,0.0203
3266.00,0.0204
3265.00,0.0205
3264.00,0.0206
3263.00,0.0207
3262.00,0.0207
3261.00,0.0208
3260.00,0.0208
3259.00,0.0208
3258.00,0.0208
3257.00,0.0208
3256.00,0.0208
3255.00,0.0209
3254.00,0.0210
3253.00,0.0211
3252.00,0.0212
3251.00,0.0213
3250.00,0.0213
3249.00,0.0213
3248.00,0.0213
3247.00,0.0214
3246.00,0.0215
3245.00,0.0217
3244.00,0.0219
3243.00,0.0220
3242.00,0.0221
3241.00,0.0222
3240.00,0.0223
3239.00,0.0224
3238.00,0.0225
3237.00,0.0225
3236.00,0.0226
3235.00,0.0226
3234.00,0.0226
3233.00,0.0228
3232.00,0.0231
3231.00,0.0234
3230.00,0.0236
3229.00,0.0238
3228.00,0.0240
3227.00,0.0241
3226.00,0.0243
3225.00,0.0244
3224.00,0.0246
3223.00,0.0248
3222.00,0.0249
3221.00,0.0251
3220.00,0.0252
3219.00,0.0254
3218.00,0.0255
3217.00,0.0257
3216.00,0.0259
3215.00,0.0260
3214.00,0.0262
3213.00,0.0264
3212.00,0.0266
3211.00,0.0268
3210.00,0.0270
3209.00,0.0272
3208.00,0.0274
3207.00,0.0276
3206.00,0.0278
3205.00,0.0280
3204.00,0.0282
3203.00,0.0284
3202.00,0.0286
3201.00,0.0289
3200.00,0.0291
3199.00,0.0293
3198.00,0.0295
3197.00,0.0297
3196.00,0.0299
3195.00,0.0302
3194.00,0.0304
3193.00,0.0306
3192.00,0.0308
3191.00,0.0310
3190.00,0.0312
3189.00,0.0314
3188.00,0.0317
3187.00,0.0319
3186.00,0.0322
3185.00,0.0324
3184.00,0.0327
3183.00,0.0329
3182.00,0.0331
3181.00,0.0334
3180.00,0.0336
3179.00,0.0339
3178.00,0.0341
3177.00,0.0344
3176.00,0.0347
3175.00,0.0350
3174.00,0.0352
3173.00,0.0355
3172.00,0.0358
3171.00,0.0361
3170.00,0.0364
3169.00,0.0367
3168.00,0.0370
3167.00,0.0373
3166.00,0.0376
3165.00,0.0378
3164.00,0.0381
3163.00,0.0384
3162.00,0.0387
3161.00,0.0390
3160.00,0.0393
3159.00,0.0396
3158.00,0.0399
3157.00,0.0402
3156.00,0.0403
3155.00,0.0404
3154.00,0.0405
3153.00,0.0407
3152.00,0.0411
3151.00,0.0416
3150.00,0.0420
3149.00,0.0425
3148.00,0.0428
3147.00,0.0431
3146.00,0.0434
3145.00,0.0437
3144.00,0.0439
3143.00,0.0441
3142.00,0.0442
3141.00,0.0443
3140.00,0.0444
3139.00,0.0447
3138.00,0.0451
3137.00,0.0455
3136.00,0.0459
3135.00,0.0463
3134.00,0.0466
3133.00,0.0468
3132.00,0.0471
3131.00,0.0473
3130.00,0.0476
3129.00,0.0480
3128.00,0.0484
3127.00,0.0487
3126.00,0.0491
3125.00,0.0494
3124.00,0.0496
3123.00,0.0497
3122.00,0.0498
3121.00,0.0498
3120.00,0.0500
3119.00,0.0502
3118.00,0.0505
3117.00,0.0508
3116.00,0.0513
3115.00,0.0518
3114.00,0.0523
3113.00,0.0528
3112.00,0.0532
3111.00,0.0534
3110.00,0.0537
3109.00,0.0540
3108.00,0.0544
3107.00,0.0548
3106.00,0.0553
3105.00,0.0557
3104.00,0.0560
3103.00,0.0563
3102.00,0.0566
3101.00,0.0569
3100.00,0.0573
3099.00,0.0577
3098.00,0.0582
3097.00,0.0587
3096.00,0.0591
3095.00,0.0595
3094.00,0.0598
3093.00,0.0600
3092.00,0.0603
3091.00,0.0605
3090.00,0.0607
3089.00,0.0610
3088.00,0.0613
3087.00,0.0614
3086.00,0.0615
3085.00,0.0616
3084.00,0.0617
3083.00,0.0618
3082.00,0.0619
3081.00,0.0621
3080.00,0.0623
3079.00,0.0626
3078.00,0.0630
3077.00,0.0636
3076.00,0.0643
3075.00,0.0649
3074.00,0.0656
3073.00,0.0663
3072.00,0.0672
3071.00,0.0681
3070.00,0.0692
3069.00,0.0706
3068.00,0.0725
3067.00,0.0750
3066.00,0.0784
3065.00,0.0828
3064.00,0.0882
3063.00,0.0948
3062.00,0.1022
3061.00,0.1098
3060.00,0.1166
3059.00,0.1215
3058.00,0.1235
3057.00,0.1223
3056.00,0.1186
3055.00,0.1131
3054.00,0.1071
3053.00,0.1014
3052.00,0.0965
3051.00,0.0925
3050.00,0.0894
3049.00,0.0870
3048.00,0.0853
3047.00,0.0839
3046.00,0.0829
3045.00,0.0821
3044.00,0.0816
3043.00,0.0812
3042.00,0.0810
3041.00,0.0810
3040.00,0.0810
3039.00,0.0811
3038.00,0.0812
3037.00,0.0812
3036.00,0.0813
3035.00,0.0814
3034.00,0.0817
3033.00,0.0820
3032.00,0.0824
3031.00,0.0827
3030.00,0.0831
3029.00,0.0835
3028.00,0.0839
3027.00,0.0842
3026.00,0.0845
3025.00,0.0849
3024.00,0.0853
3023.00,0.0857
3022.00,0.0860
3021.00,0.0863
3020.00,0.0867
3019.00,0.0870
3018.00,0.0873
3017.00,0.0876
3016.00,0.0879
3015.00,0.0882
3014.00,0.0886
3013.00,0.0889
3012.00,0.0893
3011.00,0.0898
3010.00,0.0902
3009.00,0.0906
3008.00,0.0910
3007.00,0.0914
3006.00,0.0917
3005.00,0.0920
3004.00,0.0923
3003.00,0.0926
3002.00,0.0929
3001.00,0.0932
3000.00,0.0934
2999.00,0.0936
2998.00,0.0938
2997.00,0.0940
2996.00,0.0941
2995.00,0.0942
2994.00,0.0942
2993.00,0.0942
2992.00,0.0941
2991.00,0.0941
2990.00,0.0940
2989.00,0.0938
2988.00,0.0937
2987.00,0.0936
2986.00,0.0935
2985.00,0.0934
2984.00,0.0933
2983.00,0.0932
2982.00,0.0933
2981.00,0.0934
2980.00,0.0938
2979.00,0.0942
2978.00,0.0946
2977.00,0.0951
2976.00,0.0955
2975.00,0.0959
2974.00,0.0962
2973.00,0.0966
2972.00,0.0969
2971.00,0.0972
2970.00,0.0975
2969.00,0.0978
2968.00,0.0981
2967.00,0.0983
2966.00,0.0985
2965.00,0.0987
2964.00,0.0989
2963.00,0.0991
2962.00,0.0994
2961.00,0.0997
2960.00,0.1001
2959.00,0.1004
2958.00,0.1008
2957.00,0.1012
2956.00,0.1016
2955.00,0.1020
2954.00,0.1025
2953.00,0.1030
2952.00,0.1036
2951.00,0.1041
2950.00,0.1047
2949.00,0.1052
2948.00,0.1057
2947.00,0.1062
2946.00,0.1068
2945.00,0.1073
2944.00,0.1079
2943.00,0.1086
2942.00,0.1092
2941.00,0.1098
2940.00,0.1103
2939.00,0.1108
2938.00,0.1112
2937.00,0.1117
2936.00,0.1121
2935.00,0.1126
2934.00,0.1130
2933.00,0.1134
2932.00,0.1138
2931.00,0.1142
2930.00,0.1146
2929.00,0.1151
2928.00,0.1156
2927.00,0.1161
2926.00,0.1165
2925.00,0.1169
2924.00,0.1173
2923.00,0.1176
2922.00,0.1178
2921.00,0.1180
2920.00,0.1182
2919.00,0.1183
2918.00,0.1184
2917.00,0.1185
2916.00,0.1186
2915.00,0.1187
2914.00,0.1188
2913.00,0.1190
2912.00,0.1192
2911.00,0.1193
2910.00,0.1195
2909.00,0.1196
2908.00,0.1197
2907.00,0.1198
2906.00,0.1198
2905.00,0.1198
2904.00,0.1199
2903.00,0.1200
2902.00,0.1202
2901.00,0.1203
2900.00,0.1205
2899.00,0.1207
2898.00,0.1209
2897.00,0.1212
2896.00,0.1215
2895.00,0.1219
2894.00,0.1223
2893.00,0.1226
2892.00,0.1230
2891.00,0.1234
2890.00,0.1237
2889.00,0.1241
2888.00,0.1244
2887.00,0.1247
2886.00,0.1249
2885.00,0.1251
2884.00,0.1253
2883.00,0.1254
2882.00,0.1255
2881.00,0.1257
2880.00,0.1257
2879.00,0.1258
2878.00,0.1258
2877.00,0.1259
2876.00,0.1258
2875.00,0.1258
2874.00,0.1258
2873.00,0.1258
2872.00,0.1259
2871.00,0.1260
2870.00,0.1260
2869.00,0.1259
2868.00,0.1257
2867.00,0.1255
2866.00,0.1253
2865.00,0.1250
2864.00,0.1248
2863.00,0.1245
2862.00,0.1242
2861.00,0.1239
2860.00,0.1236
2859.00,0.1233
2858.00,0.1231
2857.00,0.1229
2856.00,0.1226
2855.00,0.1224
2854.00,0.1221
2853.00,0.1218
2852.00,0.1215
2851.00,0.1212
2850.00,0.1209
2849.00,0.1207
2848.00,0.1205
2847.00,0.1203
2846.00,0.1201
2845.00,0.1199
2844.00,0.1197
2843.00,0.1195
2842.00,0.1192
2841.00,0.1188
2840.00,0.1185
2839.00,0.1182
2838.00,0.1180
2837.00,0.1178
2836.00,0.1176
2835.00,0.1173
2834.00,0.1171
2833.00,0.1168
2832.00,0.1165
2831.00,0.1162
2830.00,0.1158
2829.00,0.1155
2828.00,0.1152
2827.00,0.1148
2826.00,0.1144
2825.00,0.1140
2824.00,0.1136
2823.00,0.1132
2822.00,0.1128
2821.00,0.1124
2820.00,0.1121
2819.00,0.1118
2818.00,0.1115
2817.00,0.1112
2816.00,0.1110
2815.00,0.1108
2814.00,0.1107
2813.00,0.1106
2812.00,0.1105
2811.00,0.1105
2810.00,0.1106
2809.00,0.1107
2808.00,0.1110
2807.00,0.1112
2806.00,0.1115
2805.00,0.1119
2804.00,0.1124
2803.00,0.1129
2802.00,0.1134
2801.00,0.1140
2800.00,0.1145
2799.00,0.1151
2798.00,0.1156
2797.00,0.1161
2796.00,0.1164
2795.00,0.1167
2794.00,0.1167
2793.00,0.1167
2792.00,0.1164
2791.00,0.1160
2790.00,0.1155
2789.00,0.1149
2788.00,0.1142
2787.00,0.1134
2786.00,0.1125
2785.00,0.1115
2784.00,0.1106
2783.00,0.1095
2782.00,0.1085
2781.00,0.1074
2780.00,0.1064
2779.00,0.1053
2778.00,0.1043
2777.00,0.1033
2776.00,0.1023
2775.00,0.1013
2774.00,0.1004
2773.00,0.0996
2772.00,0.0987
2771.00,0.0978
2770.00,0.0969
2769.00,0.0961
2768.00,0.0953
2767.00,0.0944
2766.00,0.0937
2765.00,0.0930
2764.00,0.0923
2763.00,0.0917
2762.00,0.0911
2761.00,0.0905
2760.00,0.0900
2759.00,0.0896
2758.00,0.0891
2757.00,0.0888
2756.00,0.0885
2755.00,0.0882
2754.00,0.0879
2753.00,0.0876
2752.00,0.0874
2751.00,0.0872
2750.00,0.0871
2749.00,0.0869
2748.00,0.0868
2747.00,0.0867
2746.00,0.0866
2745.00,0.0865
2744.00,0.0864
2743.00,0.0863
2742.00,0.0863
2741.00,0.0862
2740.00,0.0862
2739.00,0.0862
2738.00,0.0863
2737.00,0.0864
2736.00,0.0866
2735.00,0.0870
2734.00,0.0873
2733.00,0.0878
2732.00,0.0882
2731.00,0.0887
2730.00,0.0891
2729.00,0.0895
2728.00,0.0899
2727.00,0.0902
2726.00,0.0904
2725.00,0.0905
2724.00,0.0907
2723.00,0.0907
2722.00,0.0907
2721.00,0.0907
2720.00,0.0906
2719.00,0.0905
2718.00,0.0903
2717.00,0.0901
2716.00,0.0898
2715.00,0.0896
2714.00,0.0894
2713.00,0.0891
2712.00,0.0889
2711.00,0.0887
2710.00,0.0885
2709.00,0.0884
2708.00,0.0883
2707.00,0.0883
2706.00,0.0883
2705.00,0.0884
2704.00,0.0886
2703.00,0.0889
2702.00,0.0893
2701.00,0.0899
2700.00,0.0906
2699.00,0.0915
2698.00,0.0925
2697.00,0.0936
2696.00,0.0948
2695.00,0.0961
2694.00,0.0975
2693.00,0.0988
2692.00,0.1000
2691.00,0.1012
2690.00,0.1023
2689.00,0.1031
2688.00,0.1038
2687.00,0.1043
2686.00,0.1046
2685.00,0.1047
2684.00,0.1046
2683.00,0.1044
2682.00,0.1040
2681.00,0.1034
2680.00,0.1027
2679.00,0.1019
2678.00,0.1011
2677.00,0.1002
2676.00,0.0993
2675.00,0.0983
2674.00,0.0974
2673.00,0.0965
2672.00,0.0956
2671.00,0.0947
2670.00,0.0938
2669.00,0.0930
2668.00,0.0922
2667.00,0.0915
2666.00,0.0909
2665.00,0.0902
2664.00,0.0897
2663.00,0.0891
2662.00,0.0887
2661.00,0.0882
2660.00,0.0879
2659.00,0.0875
2658.00,0.0872
2657.00,0.0869
2656.00,0.0867
2655.00,0.0865
2654.00,0.0863
2653.00,0.0862
2652.00,0.0860
2651.00,0.0858
2650.00,0.0857
2649.00,0.0855
2648.00,0.0853
2647.00,0.0852
2646.00,0.0850
2645.00,0.0848
2644.00,0.0846
2643.00,0.0844
2642.00,0.0842
2641.00,0.0841
2640.00,0.0839
2639.00,0.0838
2638.00,0.0837
2637.00,0.0837
2636.00,0.0837
2635.00,0.0838
2634.00,0.0840
2633.00,0.0843
2632.00,0.0847
2631.00,0.0853
2630.00,0.0860
2629.00,0.0870
2628.00,0.0882
2627.00,0.0896
2626.00,0.0912
2625.00,0.0931
2624.00,0.0952
2623.00,0.0975
2622.00,0.1000
2621.00,0.1026
2620.00,0.1053
2619.00,0.1080
2618.00,0.1107
2617.00,0.1134
2616.00,0.1161
2615.00,0.1185
2614.00,0.1208
2613.00,0.1229
2612.00,0.1247
2611.00,0.1263
2610.00,0.1276
2609.00,0.1286
2608.00,0.1294
2607.00,0.1298
2606.00,0.1300
2605.00,0.1300
2604.00,0.1299
2603.00,0.1295
2602.00,0.1291
2601.00,0.1285
2600.00,0.1279
2599.00,0.1273
2598.00,0.1267
2597.00,0.1260
2596.00,0.1254
2595.00,0.1249
2594.00,0.1243
2593.00,0.1239
2592.00,0.1236
2591.00,0.1234
2590.00,0.1234
2589.00,0.1235
2588.00,0.1238
2587.00,0.1241
2586.00,0.1245
2585.00,0.1248
2584.00,0.1250
2583.00,0.1251
2582.00,0.1250
2581.00,0.1249
2580.00,0.1246
2579.00,0.1241
2578.00,0.1236
2577.00,0.1230
2576.00,0.1223
2575.00,0.1217
2574.00,0.1210
2573.00,0.1203
2572.00,0.1196
2571.00,0.1190
2570.00,0.1184
2569.00,0.1178
2568.00,0.1173
2567.00,0.1168
2566.00,0.1163
2565.00,0.1159
2564.00,0.1155
2563.00,0.1151
2562.00,0.1147
2561.00,0.1144
2560.00,0.1142
2559.00,0.1140
2558.00,0.1138
2557.00,0.1136
2556.00,0.1136
2555.00,0.1135
2554.00,0.1135
2553.00,0.1134
2552.00,0.1134
2551.00,0.1133
2550.00,0.1132
2549.00,0.1131
2548.00,0.1129
2547.00,0.1128
2546.00,0.1127
2545.00,0.1126
2544.00,0.1125
2543.00,0.1125
2542.00,0.1125
2541.00,0.1126
2540.00,0.1128
2539.00,0.1129
2538.00,0.1131
2537.00,0.1133
2536.00,0.1135
2535.00,0.1137
2534.00,0.1139
2533.00,0.1142
2532.00,0.1144
2531.00,0.1147
2530.00,0.1151
2529.00,0.1155
2528.00,0.1159
2527.00,0.1163
2526.00,0.1169
2525.00,0.1174
2524.00,0.1181
2523.00,0.1187
2522.00,0.1194
2521.00,0.1202
2520.00,0.1210
2519.00,0.1218
2518.00,0.1226
2517.00,0.1235
2516.00,0.1244
2515.00,0.1253
2514.00,0.1261
2513.00,0.1270
2512.00,0.1277
2511.00,0.1284
2510.00,0.1290
2509.00,0.1294
2508.00,0.1298
2507.00,0.1300
2506.00,0.1302
2505.00,0.1303
2504.00,0.1302
2503.00,0.1300
2502.00,0.1297
2501.00,0.1294
2500.00,0.1289
2499.00,0.1284
2498.00,0.1278
2497.00,0.1272
2496.00,0.1266
2495.00,0.1260
2494.00,0.1254
2493.00,0.1249
2492.00,0.1244
2491.00,0.1239
2490.00,0.1235
2489.00,0.1231
2488.00,0.1228
2487.00,0.1225
2486.00,0.1223
2485.00,0.1221
2484.00,0.1220
2483.00,0.1218
2482.00,0.1217
2481.00,0.1215
2480.00,0.1213
2479.00,0.1211
2478.00,0.1207
2477.00,0.1204
2476.00,0.1200
2475.00,0.1197
2474.00,0.1192
2473.00,0.1188
2472.00,0.1185
2471.00,0.1181
2470.00,0.1177
2469.00,0.1173
2468.00,0.1170
2467.00,0.1167
2466.00,0.1165
2465.00,0.1163
2464.00,0.1161
2463.00,0.1159
2462.00,0.1158
2461.00,0.1157
2460.00,0.1157
2459.00,0.1157
2458.00,0.1157
2457.00,0.1157
2456.00,0.1157
2455.00,0.1158
2454.00,0.1159
2453.00,0.1161
2452.00,0.1162
2451.00,0.1164
2450.00,0.1166
2449.00,0.1168
2448.00,0.1171
2447.00,0.1173
2446.00,0.1176
2445.00,0.1179
2444.00,0.1182
2443.00,0.1186
2442.00,0.1190
2441.00,0.1195
2440.00,0.1199
2439.00,0.1204
2438.00,0.1209
2437.00,0.1214
2436.00,0.1218
2435.00,0.1222
2434.00,0.1226
2433.00,0.1229
2432.00,0.1231
2431.00,0.1233
2430.00,0.1235
2429.00,0.1235
2428.00,0.1236
2427.00,0.1236
2426.00,0.1236
2425.00,0.1236
2424.00,0.1236
2423.00,0.1236
2422.00,0.1237
2421.00,0.1238
2420.00,0.1239
2419.00,0.1241
2418.00,0.1243
2417.00,0.1246
2416.00,0.1249
2415.00,0.1252
2414.00,0.1255
2413.00,0.1258
2412.00,0.1261
2411.00,0.1264
2410.00,0.1266
2409.00,0.1268
2408.00,0.1269
2407.00,0.1271
2406.00,0.1272
2405.00,0.1273
2404.00,0.1274
2403.00,0.1275
2402.00,0.1276
2401.00,0.1277
2400.00,0.1279
2399.00,0.1280
2398.00,0.1281
2397.00,0.1283
2396.00,0.1285
2395.00,0.1287
2394.00,0.1289
2393.00,0.1291
2392.00,0.1292
2391.00,0.1294
2390.00,0.1296
2389.00,0.1297
2388.00,0.1298
2387.00,0.1299
2386.00,0.1301
2385.00,0.1283
2384.00,0.1279
2383.00,0.1274
2382.00,0.1269
2381.00,0.1265
2380.00,0.1263
2379.00,0.1261
2378.00,0.1260
2377.00,0.1260
2376.00,0.1259
2375.00,0.1257
2374.00,0.1256
2373.00,0.1253
2372.00,0.1251
2371.00,0.1248
2370.00,0.1245
2369.00,0.1242
2368.00,0.1239
2367.00,0.1237
2366.00,0.1235
2365.00,0.1232
2364.00,0.1230
2363.00,0.1227
2362.00,0.1224
2361.00,0.1221
2360.00,0.1217
2359.00,0.1214
2358.00,0.1212
2357.00,0.1212
2356.00,0.1213
2355.00,0.1212
2354.00,0.1209
2353.00,0.1206
2352.00,0.1203
2351.00,0.1201
2350.00,0.1198
2349.00,0.1193
2348.00,0.1186
2347.00,0.1178
2346.00,0.1169
2345.00,0.1163
2344.00,0.1160
2343.00,0.1159
2342.00,0.1160
2341.00,0.1163
2340.00,0.1165
2339.00,0.1166
2338.00,0.1163
2337.00,0.1160
2336.00,0.1158
2335.00,0.1155
2334.00,0.1152
2333.00,0.1148
2332.00,0.1142
2331.00,0.1138
2330.00,0.1134
2329.00,0.1132
2328.00,0.1133
2327.00,0.1135
2326.00,0.1137
2325.00,0.1138
2324.00,0.1139
2323.00,0.1139
2322.00,0.1142
2321.00,0.1145
2320.00,0.1149
2319.00,0.1152
2318.00,0.1154
2317.00,0.1154
2316.00,0.1152
2315.00,0.1148
2314.00,0.1142
2313.00,0.1134
2312.00,0.1127
2311.00,0.1120
2310.00,0.1114
2309.00,0.1110
2308.00,0.1107
2307.00,0.1105
2306.00,0.1103
2305.00,0.1102
2304.00,0.1100
2303.00,0.1097
2302.00,0.1094
2301.00,0.1090
2300.00,0.1088
2299.00,0.1086
2298.00,0.1084
2297.00,0.1083
2296.00,0.1081
2295.00,0.1079
2294.00,0.1076
2293.00,0.1074
2292.00,0.1070
2291.00,0.1066
2290.00,0.1062
2289.00,0.1056
2288.00,0.1050
2287.00,0.1043
2286.00,0.1035
2285.00,0.1027
2284.00,0.1020
2283.00,0.1012
2282.00,0.1004
2281.00,0.0996
2280.00,0.0988
2279.00,0.0980
2278.00,0.0971
2277.00,0.0963
2276.00,0.0954
2275.00,0.0945
2274.00,0.0936
2273.00,0.0926
2272.00,0.0915
2271.00,0.0905
2270.00,0.0894
2269.00,0.0884
2268.00,0.0875
2267.00,0.0866
2266.00,0.0859
2265.00,0.0852
2264.00,0.0845
2263.00,0.0839
2262.00,0.0832
2261.00,0.0827
2260.00,0.0823
2259.00,0.0819
2258.00,0.0814
2257.00,0.0809
2256.00,0.0804
2255.00,0.0800
2254.00,0.0797
2253.00,0.0795
2252.00,0.0794
2251.00,0.0793
2250.00,0.0791
2249.00,0.0790
2248.00,0.0789
2247.00,0.0788
2246.00,0.0788
2245.00,0.0788
2244.00,0.0788
2243.00,0.0788
2242.00,0.0788
2241.00,0.0788
2240.00,0.0788
2239.00,0.0787
2238.00,0.0786
2237.00,0.0785
2236.00,0.0785
2235.00,0.0784
2234.00,0.0782
2233.00,0.0780
2232.00,0.0777
2231.00,0.0773
2230.00,0.0770
2229.00,0.0767
2228.00,0.0764
2227.00,0.0759
2226.00,0.0755
2225.00,0.0751
2224.00,0.0747
2223.00,0.0744
2222.00,0.0742
2221.00,0.0741
2220.00,0.0740
2219.00,0.0738
2218.00,0.0736
2217.00,0.0735
2216.00,0.0734
2215.00,0.0734
2214.00,0.0734
2213.00,0.0735
2212.00,0.0736
2211.00,0.0736
2210.00,0.0737
2209.00,0.0738
2208.00,0.0741
2207.00,0.0743
2206.00,0.0746
2205.00,0.0749
2204.00,0.0752
2203.00,0.0755
2202.00,0.0758
2201.00,0.0761
2200.00,0.0764
2199.00,0.0767
2198.00,0.0770
2197.00,0.0774
2196.00,0.0778
2195.00,0.0781
2194.00,0.0784
2193.00,0.0786
2192.00,0.0788
2191.00,0.0791
2190.00,0.0794
2189.00,0.0798
2188.00,0.0802
2187.00,0.0804
2186.00,0.0805
2185.00,0.0805
2184.00,0.0804
2183.00,0.0803
2182.00,0.0804
2181.00,0.0807
2180.00,0.0813
2179.00,0.0818
2178.00,0.0823
2177.00,0.0828
2176.00,0.0834
2175.00,0.0841
2174.00,0.0848
2173.00,0.0857
2172.00,0.0865
2171.00,0.0872
2170.00,0.0878
2169.00,0.0883
2168.00,0.0887
2167.00,0.0890
2166.00,0.0891
2165.00,0.0892
2164.00,0.0891
2163.00,0.0887
2162.00,0.0877
2161.00,0.0863
2160.00,0.0848
2159.00,0.0837
2158.00,0.0832
2157.00,0.0832
2156.00,0.0831
2155.00,0.0830
2154.00,0.0828
2153.00,0.0826
2152.00,0.0823
2151.00,0.0819
2150.00,0.0813
2149.00,0.0808
2148.00,0.0802
2147.00,0.0795
2146.00,0.0788
2145.00,0.0781
2144.00,0.0775
2143.00,0.0768
2142.00,0.0762
2141.00,0.0755
2140.00,0.0749
2139.00,0.0741
2138.00,0.0734
2137.00,0.0726
2136.00,0.0719
2135.00,0.0711
2134.00,0.0703
2133.00,0.0698
2132.00,0.0693
2131.00,0.0690
2130.00,0.0686
2129.00,0.0682
2128.00,0.0678
2127.00,0.0673
2126.00,0.0669
2125.00,0.0664
2124.00,0.0660
2123.00,0.0656
2122.00,0.0653
2121.00,0.0650
2120.00,0.0648
2119.00,0.0647
2118.00,0.0647
2117.00,0.0647
2116.00,0.0648
2115.00,0.0647
2114.00,0.0646
2113.00,0.0644
2112.00,0.0642
2111.00,0.0638
2110.00,0.0634
2109.00,0.0628
2108.00,0.0623
2107.00,0.0617
2106.00,0.0610
2105.00,0.0604
2104.00,0.0597
2103.00,0.0589
2102.00,0.0582
2101.00,0.0575
2100.00,0.0569
2099.00,0.0562
2098.00,0.0555
2097.00,0.0547
2096.00,0.0541
2095.00,0.0535
2094.00,0.0530
2093.00,0.0527
2092.00,0.0524
2091.00,0.0521
2090.00,0.0518
2089.00,0.0516
2088.00,0.0514
2087.00,0.0511
2086.00,0.0509
2085.00,0.0506
2084.00,0.0504
2083.00,0.0501
2082.00,0.0498
2081.00,0.0494
2080.00,0.0492
2079.00,0.0489
2078.00,0.0486
2077.00,0.0483
2076.00,0.0480
2075.00,0.0478
2074.00,0.0475
2073.00,0.0473
2072.00,0.0472
2071.00,0.0471
2070.00,0.0469
2069.00,0.0467
2068.00,0.0465
2067.00,0.0463
2066.00,0.0462
2065.00,0.0462
2064.00,0.0461
2063.00,0.0459
2062.00,0.0457
2061.00,0.0455
2060.00,0.0455
2059.00,0.0454
2058.00,0.0453
2057.00,0.0452
2056.00,0.0451
2055.00,0.0451
2054.00,0.0453
2053.00,0.0457
2052.00,0.0460
2051.00,0.0460
2050.00,0.0457
2049.00,0.0454
2048.00,0.0452
2047.00,0.0450
2046.00,0.0448
2045.00,0.0448
2044.00,0.0450
2043.00,0.0452
2042.00,0.0456
2041.00,0.0461
2040.00,0.0467
2039.00,0.0471
2038.00,0.0472
2037.00,0.0470
2036.00,0.0463
2035.00,0.0451
2034.00,0.0438
2033.00,0.0427
2032.00,0.0418
2031.00,0.0409
2030.00,0.0400
2029.00,0.0393
2028.00,0.0388
2027.00,0.0382
2026.00,0.0378
2025.00,0.0375
2024.00,0.0373
2023.00,0.0369
2022.00,0.0364
2021.00,0.0359
2020.00,0.0354
2019.00,0.0349
2018.00,0.0345
2017.00,0.0344
2016.00,0.0343
2015.00,0.0340
2014.00,0.0337
2013.00,0.0335
2012.00,0.0335
2011.00,0.0333
2010.00,0.0331
2009.00,0.0328
2008.00,0.0325
2007.00,0.0321
2006.00,0.0318
2005.00,0.0319
2004.00,0.0320
2003.00,0.0321
2002.00,0.0320
2001.00,0.0320
2000.00,0.0319
1999.00,0.0317
1998.00,0.0316
1997.00,0.0316
1996.00,0.0316
1995.00,0.0313
1994.00,0.0311
1993.00,0.0313
1992.00,0.0316
1991.00,0.0316
1990.00,0.0315
1989.00,0.0314
1988.00,0.0315
1987.00,0.0315
1986.00,0.0314
1985.00,0.0315
1984.00,0.0317
1983.00,0.0319
1982.00,0.0320
1981.00,0.0319
1980.00,0.0315
1979.00,0.0307
1978.00,0.0299
1977.00,0.0297
1976.00,0.0299
1975.00,0.0301
1974.00,0.0303
1973.00,0.0304
1972.00,0.0306
1971.00,0.0306
1970.00,0.0305
1969.00,0.0308
1968.00,0.0313
1967.00,0.0319
1966.00,0.0323
1965.00,0.0326
1964.00,0.0329
1963.00,0.0331
1962.00,0.0334
1961.00,0.0337
1960.00,0.0341
1959.00,0.0344
1958.00,0.0348
1957.00,0.0353
1956.00,0.0359
1955.00,0.0362
1954.00,0.0365
1953.00,0.0367
1952.00,0.0371
1951.00,0.0375
1950.00,0.0379
1949.00,0.0384
1948.00,0.0390
1947.00,0.0394
1946.00,0.0396
1945.00,0.0399
1944.00,0.0405
1943.00,0.0414
1942.00,0.0425
1941.00,0.0434
1940.00,0.0441
1939.00,0.0446
1938.00,0.0454
1937.00,0.0462
1936.00,0.0470
1935.00,0.0478
1934.00,0.0484
1933.00,0.0492
1932.00,0.0498
1931.00,0.0504
1930.00,0.0509
1929.00,0.0515
1928.00,0.0521
1927.00,0.0526
1926.00,0.0530
1925.00,0.0534
1924.00,0.0538
1923.00,0.0541
1922.00,0.0543
1921.00,0.0545
1920.00,0.0546
1919.00,0.0547
1918.00,0.0547
1917.00,0.0548
1916.00,0.0549
1915.00,0.0549
1914.00,0.0548
1913.00,0.0548
1912.00,0.0548
1911.00,0.0548
1910.00,0.0549
1909.00,0.0550
1908.00,0.0555
1907.00,0.0556
1906.00,0.0556
1905.00,0.0558
1904.00,0.0561
1903.00,0.0563
1902.00,0.0566
1901.00,0.0570
1900.00,0.0572
1899.00,0.0573
1898.00,0.0574
1897.00,0.0575
1896.00,0.0578
1895.00,0.0582
1894.00,0.0584
1893.00,0.0582
1892.00,0.0580
1891.00,0.0581
1890.00,0.0588
1889.00,0.0597
1888.00,0.0603
1887.00,0.0604
1886.00,0.0602
1885.00,0.0599
1884.00,0.0595
1883.00,0.0589
1882.00,0.0581
1881.00,0.0574
1880.00,0.0567
1879.00,0.0561
1878.00,0.0555
1877.00,0.0550
1876.00,0.0546
1875.00,0.0542
1874.00,0.0538
1873.00,0.0534
1872.00,0.0532
1871.00,0.0529
1870.00,0.0526
1869.00,0.0523
1868.00,0.0520
1867.00,0.0517
1866.00,0.0512
1865.00,0.0509
1864.00,0.0505
1863.00,0.0501
1862.00,0.0497
1861.00,0.0492
1860.00,0.0487
1859.00,0.0482
1858.00,0.0477
1857.00,0.0471
1856.00,0.0465
1855.00,0.0459
1854.00,0.0452
1853.00,0.0446
1852.00,0.0440
1851.00,0.0433
1850.00,0.0426
1849.00,0.0420
1848.00,0.0414
1847.00,0.0408
1846.00,0.0402
1845.00,0.0396
1844.00,0.0391
1843.00,0.0385
1842.00,0.0380
1841.00,0.0375
1840.00,0.0370
1839.00,0.0365
1838.00,0.0361
1837.00,0.0357
1836.00,0.0354
1835.00,0.0350
1834.00,0.0347
1833.00,0.0344
1832.00,0.0342
1831.00,0.0340
1830.00,0.0337
1829.00,0.0335
1828.00,0.0332
1827.00,0.0330
1826.00,0.0328
1825.00,0.0327
1824.00,0.0326
1823.00,0.0324
1822.00,0.0322
1821.00,0.0322
1820.00,0.0321
1819.00,0.0320
1818.00,0.0321
1817.00,0.0325
1816.00,0.0329
1815.00,0.0330
1814.00,0.0328
1813.00,0.0326
1812.00,0.0326
1811.00,0.0326
1810.00,0.0325
1809.00,0.0322
1808.00,0.0317
1807.00,0.0310
1806.00,0.0304
1805.00,0.0298
1804.00,0.0294
1803.00,0.0289
1802.00,0.0285
1801.00,0.0281
1800.00,0.0277
1799.00,0.0274
1798.00,0.0270
1797.00,0.0267
1796.00,0.0265
1795.00,0.0263
1794.00,0.0260
1793.00,0.0259
1792.00,0.0257
1791.00,0.0255
1790.00,0.0252
1789.00,0.0250
1788.00,0.0248
1787.00,0.0246
1786.00,0.0244
1785.00,0.0242
1784.00,0.0241
1783.00,0.0238
1782.00,0.0236
1781.00,0.0233
1780.00,0.0231
1779.00,0.0228
1778.00,0.0224
1777.00,0.0222
1776.00,0.0220
1775.00,0.0217
1774.00,0.0215
1773.00,0.0213
1772.00,0.0211
1771.00,0.0208
1770.00,0.0204
1769.00,0.0202
1768.00,0.0199
1767.00,0.0197
1766.00,0.0194
1765.00,0.0192
1764.00,0.0192
1763.00,0.0191
1762.00,0.0189
1761.00,0.0188
1760.00,0.0188
1759.00,0.0187
1758.00,0.0187
1757.00,0.0187
1756.00,0.0188
1755.00,0.0189
1754.00,0.0190
1753.00,0.0193
1752.00,0.0197
1751.00,0.0202
1750.00,0.0207
1749.00,0.0213
1748.00,0.0221
1747.00,0.0229
1746.00,0.0237
1745.00,0.0249
1744.00,0.0262
1743.00,0.0276
1742.00,0.0290
1741.00,0.0308
1740.00,0.0328
1739.00,0.0349
1738.00,0.0368
1737.00,0.0386
1736.00,0.0406
1735.00,0.0431
1734.00,0.0460
1733.00,0.0487
1732.00,0.0509
1731.00,0.0527
1730.00,0.0542
1729.00,0.0556
1728.00,0.0572
1727.00,0.0586
1726.00,0.0604
1725.00,0.0632
1724.00,0.0671
1723.00,0.0714
1722.00,0.0747
1721.00,0.0771
1720.00,0.0802
1719.00,0.0866
1718.00,0.0974
1717.00,0.1107
1716.00,0.1236
1715.00,0.1363
1714.00,0.1505
1713.00,0.1674
1712.00,0.1871
1711.00,0.2097
1710.00,0.2357
1709.00,0.2638
1708.00,0.2927
1707.00,0.3223
1706.00,0.3502
1705.00,0.3687
1704.00,0.3716
1703.00,0.3603
1702.00,0.3373
1701.00,0.3028
1700.00,0.2635
1699.00,0.2302
1698.00,0.2039
1697.00,0.1806
1696.00,0.1584
1695.00,0.1381
1694.00,0.1209
1693.00,0.1064
1692.00,0.0943
1691.00,0.0850
1690.00,0.0775
1689.00,0.0709
1688.00,0.0646
1687.00,0.0592
1686.00,0.0552
1685.00,0.0532
1684.00,0.0526
1683.00,0.0509
1682.00,0.0483
1681.00,0.0463
1680.00,0.0449
1679.00,0.0430
1678.00,0.0403
1677.00,0.0427
1676.00,0.0420
1675.00,0.0416
1674.00,0.0414
1673.00,0.0413
1672.00,0.0413
1671.00,0.0417
1670.00,0.0424
1669.00,0.0433
1668.00,0.0443
1667.00,0.0452
1666.00,0.0462
1665.00,0.0472
1664.00,0.0484
1663.00,0.0500
1662.00,0.0518
1661.00,0.0537
1660.00,0.0559
1659.00,0.0585
1658.00,0.0613
1657.00,0.0643
1656.00,0.0673
1655.00,0.0709
1654.00,0.0764
1653.00,0.0837
1652.00,0.0908
1651.00,0.0962
1650.00,0.0996
1649.00,0.1008
1648.00,0.1075
1647.00,0.1200
1646.00,0.1344
1645.00,0.1477
1644.00,0.1589
1643.00,0.1691
1642.00,0.1800
1641.00,0.1919
1640.00,0.2031
1639.00,0.2127
1638.00,0.2214
1637.00,0.2312
1636.00,0.2423
1635.00,0.2520
1634.00,0.2571
1633.00,0.2579
1632.00,0.2559
1631.00,0.2527
1630.00,0.2488
1629.00,0.2447
1628.00,0.2405
1627.00,0.2358
1626.00,0.2306
1625.00,0.2253
1624.00,0.2208
1623.00,0.2174
1622.00,0.2145
1621.00,0.2112
1620.00,0.2074
1619.00,0.2048
1618.00,0.2049
1617.00,0.2081
1616.00,0.2121
1615.00,0.2143
1614.00,0.2151
1613.00,0.2164
1612.00,0.2193
1611.00,0.2234
1610.00,0.2284
1609.00,0.2343
1608.00,0.2407
1607.00,0.2474
1606.00,0.2543
1605.00,0.2616
1604.00,0.2696
1603.00,0.2781
1602.00,0.2870
1601.00,0.2962
1600.00,0.3056
1599.00,0.3150
1598.00,0.3246
1597.00,0.3346
1596.00,0.3450
1595.00,0.3557
1594.00,0.3664
1593.00,0.3771
1592.00,0.3878
1591.00,0.3984
1590.00,0.4087
1589.00,0.4184
1588.00,0.4272
1587.00,0.4342
1586.00,0.4389
1585.00,0.4409
1584.00,0.4396
1583.00,0.4352
1582.00,0.4283
1581.00,0.4200
1580.00,0.4113
1579.00,0.4043
1578.00,0.4014
1577.00,0.4049
1576.00,0.4139
1575.00,0.4237
1574.00,0.4307
1573.00,0.4360
1572.00,0.4427
1571.00,0.4526
1570.00,0.4657
1569.00,0.4797
1568.00,0.4910
1567.00,0.4985
1566.00,0.5033
1565.00,0.5066
1564.00,0.5077
1563.00,0.5056
1562.00,0.5004
1561.00,0.4939
1560.00,0.4888
1559.00,0.4878
1558.00,0.4855
1557.00,0.4805
1556.00,0.4750
1555.00,0.4698
1554.00,0.4646
1553.00,0.4587
1552.00,0.4521
1551.00,0.4457
1550.00,0.4404
1549.00,0.4337
1548.00,0.4271
1547.00,0.4205
1546.00,0.4135
1545.00,0.4064
1544.00,0.3995
1543.00,0.3927
1542.00,0.3856
1541.00,0.3784
1540.00,0.3710
1539.00,0.3637
1538.00,0.3567
1537.00,0.3501
1536.00,0.3440
1535.00,0.3379
1534.00,0.3317
1533.00,0.3256
1532.00,0.3200
1531.00,0.3147
1530.00,0.3096
1529.00,0.3047
1528.00,0.3001
1527.00,0.2957
1526.00,0.2913
1525.00,0.2872
1524.00,0.2834
1523.00,0.2796
1522.00,0.2758
1521.00,0.2720
1520.00,0.2685
1519.00,0.2649
1518.00,0.2611
1517.00,0.2573
1516.00,0.2537
1515.00,0.2500
1514.00,0.2462
1513.00,0.2424
1512.00,0.2388
1511.00,0.2351
1510.00,0.2314
1509.00,0.2278
1508.00,0.2243
1507.00,0.2206
1506.00,0.2167
1505.00,0.2128
1504.00,0.2089
1503.00,0.2050
1502.00,0.2008
1501.00,0.1944
1500.00,0.1889
1499.00,0.1838
1498.00,0.1796
1497.00,0.1766
1496.00,0.1736
1495.00,0.1692
1494.00,0.1630
1493.00,0.1561
1492.00,0.1501
1491.00,0.1457
1490.00,0.1432
1489.00,0.1420
1488.00,0.1418
1487.00,0.1427
1486.00,0.1446
1485.00,0.1478
1484.00,0.1523
1483.00,0.1582
1482.00,0.1659
1481.00,0.1753
1480.00,0.1850
1479.00,0.1944
1478.00,0.2038
1477.00,0.2138
1476.00,0.2241
1475.00,0.2340
1474.00,0.2446
1473.00,0.2570
1472.00,0.2702
1471.00,0.2815
1470.00,0.2903
1469.00,0.2976
1468.00,0.3042
1467.00,0.3111
1466.00,0.3192
1465.00,0.3292
1464.00,0.3395
1463.00,0.3481
1462.00,0.3539
1461.00,0.3571
1460.00,0.3584
1459.00,0.3589
1458.00,0.3592
1457.00,0.3585
1456.00,0.3547
1455.00,0.3472
1454.00,0.3374
1453.00,0.3273
1452.00,0.3178
1451.00,0.3090
1450.00,0.3011
1449.00,0.2953
1448.00,0.2922
1447.00,0.2915
1446.00,0.2927
1445.00,0.2956
1444.00,0.3002
1443.00,0.3067
1442.00,0.3149
1441.00,0.3240
1440.00,0.3335
1439.00,0.3438
1438.00,0.3575
1437.00,0.3765
1436.00,0.3979
1435.00,0.4159
1434.00,0.4286
1433.00,0.4373
1432.00,0.4434
1431.00,0.4463
1430.00,0.4461
1429.00,0.4432
1428.00,0.4381
1427.00,0.4308
1426.00,0.4226
1425.00,0.4144
1424.00,0.4061
1423.00,0.3972
1422.00,0.3880
1421.00,0.3793
1420.00,0.3716
1419.00,0.3651
1418.00,0.3588
1417.00,0.3523
1416.00,0.3455
1415.00,0.3389
1414.00,0.3324
1413.00,0.3261
1412.00,0.3201
1411.00,0.3143
1410.00,0.3086
1409.00,0.3027
1408.00,0.2968
1407.00,0.2921
1406.00,0.2869
1405.00,0.2819
1404.00,0.2771
1403.00,0.2723
1402.00,0.2678
1401.00,0.2634
1400.00,0.2591
1399.00,0.2550
1398.00,0.2511
1397.00,0.2473
1396.00,0.2436
1395.00,0.2401
1394.00,0.2366
1393.00,0.2332
1392.00,0.2297
1391.00,0.2262
1390.00,0.2227
1389.00,0.2192
1388.00,0.2155
1387.00,0.2118
1386.00,0.2080
1385.00,0.2043
1384.00,0.2000
1383.00,0.1959
1382.00,0.1918
1381.00,0.1879
1380.00,0.1840
1379.00,0.1802
1378.00,0.1763
1377.00,0.1722
1376.00,0.1682
1375.00,0.1648
1374.00,0.1620
1373.00,0.1593
1372.00,0.1566
1371.00,0.1542
1370.00,0.1522
1369.00,0.1507
1368.00,0.1494
1367.00,0.1478
1366.00,0.1457
1365.00,0.1431
1364.00,0.1406
1363.00,0.1382
1362.00,0.1359
1361.00,0.1332
1360.00,0.1303
1359.00,0.1274
1358.00,0.1244
1357.00,0.1216
1356.00,0.1188
1355.00,0.1161
1354.00,0.1136
1353.00,0.1110
1352.00,0.1084
1351.00,0.1060
1350.00,0.1037
1349.00,0.1016
1348.00,0.0994
1347.00,0.0974
1346.00,0.0955
1345.00,0.0936
1344.00,0.0916
1343.00,0.0897
1342.00,0.0881
1341.00,0.0870
1340.00,0.0862
1339.00,0.0857
1338.00,0.0852
1337.00,0.0847
1336.00,0.0845
1335.00,0.0847
1334.00,0.0853
1333.00,0.0861
1332.00,0.0870
1331.00,0.0879
1330.00,0.0887
1329.00,0.0892
1328.00,0.0892
1327.00,0.0886
1326.00,0.0873
1325.00,0.0854
1324.00,0.0832
1323.00,0.0812
1322.00,0.0795
1321.00,0.0781
1320.00,0.0771
1319.00,0.0764
1318.00,0.0758
1317.00,0.0752
1316.00,0.0746
1315.00,0.0742
1314.00,0.0740
1313.00,0.0738
1312.00,0.0736
1311.00,0.0733
1310.00,0.0731
1309.00,0.0729
1308.00,0.0728
1307.00,0.0729
1306.00,0.0732
1305.00,0.0738
1304.00,0.0746
1303.00,0.0757
1302.00,0.0773
1301.00,0.0791
1300.00,0.0813
1299.00,0.0838
1298.00,0.0868
1297.00,0.0899
1296.00,0.0934
1295.00,0.0971
1294.00,0.1011
1293.00,0.1055
1292.00,0.1102
1291.00,0.1154
1290.00,0.1212
1289.00,0.1273
1288.00,0.1340
1287.00,0.1412
1286.00,0.1489
1285.00,0.1571
1284.00,0.1658
1283.00,0.1751
1282.00,0.1849
1281.00,0.1953
1280.00,0.2061
1279.00,0.2175
1278.00,0.2294
1277.00,0.2418
1276.00,0.2546
1275.00,0.2680
1274.00,0.2818
1273.00,0.2963
1272.00,0.3113
1271.00,0.3269
1270.00,0.3430
1269.00,0.3595
1268.00,0.3765
1267.00,0.3937
1266.00,0.4107
1265.00,0.4268
1264.00,0.4414
1263.00,0.4536
1262.00,0.4628
1261.00,0.4686
1260.00,0.4710
1259.00,0.4703
1258.00,0.4670
1257.00,0.4618
1256.00,0.4554
1255.00,0.4482
1254.00,0.4404
1253.00,0.4323
1252.00,0.4242
1251.00,0.4159
1250.00,0.4075
1249.00,0.3989
1248.00,0.3902
1247.00,0.3813
1246.00,0.3723
1245.00,0.3632
1244.00,0.3541
1243.00,0.3451
1242.00,0.3361
1241.00,0.3273
1240.00,0.3187
1239.00,0.3104
1238.00,0.3024
1237.00,0.2949
1236.00,0.2878
1235.00,0.2812
1234.00,0.2751
1233.00,0.2696
1232.00,0.2649
1231.00,0.2612
1230.00,0.2589
1229.00,0.2585
1228.00,0.2608
1227.00,0.2670
1226.00,0.2782
1225.00,0.2952
1224.00,0.3178
1223.00,0.3444
1222.00,0.3717
1221.00,0.3956
1220.00,0.4123
1219.00,0.4199
1218.00,0.4190
1217.00,0.4118
1216.00,0.4010
1215.00,0.3888
1214.00,0.3766
1213.00,0.3650
1212.00,0.3545
1211.00,0.3450
1210.00,0.3364
1209.00,0.3287
1208.00,0.3218
1207.00,0.3156
1206.00,0.3102
1205.00,0.3056
1204.00,0.3016
1203.00,0.2983
1202.00,0.2955
1201.00,0.2933
1200.00,0.2916
1199.00,0.2902
1198.00,0.2890
1197.00,0.2880
1196.00,0.2871
1195.00,0.2861
1194.00,0.2850
1193.00,0.2833
1192.00,0.2810
1191.00,0.2782
1190.00,0.2750
1189.00,0.2715
1188.00,0.2680
1187.00,0.2646
1186.00,0.2614
1185.00,0.2584
1184.00,0.2556
1183.00,0.2531
1182.00,0.2509
1181.00,0.2489
1180.00,0.2471
1179.00,0.2454
1178.00,0.2438
1177.00,0.2421
1176.00,0.2404
1175.00,0.2386
1174.00,0.2367
1173.00,0.2347
1172.00,0.2325
1171.00,0.2303
1170.00,0.2280
1169.00,0.2258
1168.00,0.2236
1167.00,0.2214
1166.00,0.2193
1165.00,0.2172
1164.00,0.2152
1163.00,0.2132
1162.00,0.2113
1161.00,0.2093
1160.00,0.2074
1159.00,0.2054
1158.00,0.2035
1157.00,0.2016
1156.00,0.1996
1155.00,0.1977
1154.00,0.1957
1153.00,0.1938
1152.00,0.1919
1151.00,0.1900
1150.00,0.1883
1149.00,0.1865
1148.00,0.1849
1147.00,0.1833
1146.00,0.1819
1145.00,0.1805
1144.00,0.1791
1143.00,0.1778
1142.00,0.1766
1141.00,0.1754
1140.00,0.1743
1139.00,0.1732
1138.00,0.1721
1137.00,0.1711
1136.00,0.1700
1135.00,0.1690
1134.00,0.1679
1133.00,0.1668
1132.00,0.1657
1131.00,0.1646
1130.00,0.1636
1129.00,0.1625
1128.00,0.1614
1127.00,0.1603
1126.00,0.1593
1125.00,0.1583
1124.00,0.1573
1123.00,0.1564
1122.00,0.1555
1121.00,0.1547
1120.00,0.1538
1119.00,0.1530
1118.00,0.1522
1117.00,0.1514
1116.00,0.1507
1115.00,0.1500
1114.00,0.1493
1113.00,0.1486
1112.00,0.1480
1111.00,0.1473
1110.00,0.1467
1109.00,0.1461
1108.00,0.1454
1107.00,0.1449
1106.00,0.1444
1105.00,0.1439
1104.00,0.1434
1103.00,0.1429
1102.00,0.1425
1101.00,0.1420
1100.00,0.1415
1099.00,0.1411
1098.00,0.1406
1097.00,0.1401
1096.00,0.1396
1095.00,0.1392
1094.00,0.1388
1093.00,0.1383
1092.00,0.1378
1091.00,0.1374
1090.00,0.1369
1089.00,0.1363
1088.00,0.1357
1087.00,0.1351
1086.00,0.1345
1085.00,0.1339
1084.00,0.1332
1083.00,0.1326
1082.00,0.1320
1081.00,0.1315
1080.00,0.1309
1079.00,0.1303
1078.00,0.1298
1077.00,0.1293
1076.00,0.1289
1075.00,0.1285
1074.00,0.1282
1073.00,0.1278
1072.00,0.1275
1071.00,0.1272
1070.00,0.1270
1069.00,0.1267
1068.00,0.1265
1067.00,0.1263
1066.00,0.1262
1065.00,0.1261
1064.00,0.1258
1063.00,0.1256
1062.00,0.1255
1061.00,0.1253
1060.00,0.1251
1059.00,0.1250
1058.00,0.1250
1057.00,0.1248
1056.00,0.1246
1055.00,0.1244
1054.00,0.1242
1053.00,0.1241
1052.00,0.1239
1051.00,0.1238
1050.00,0.1238
1049.00,0.1237
1048.00,0.1236
1047.00,0.1235
1046.00,0.1234
1045.00,0.1233
1044.00,0.1231
1043.00,0.1231
1042.00,0.1231
1041.00,0.1231
1040.00,0.1231
1039.00,0.1232
1038.00,0.1233
1037.00,0.1236
1036.00,0.1238
1035.00,0.1243
1034.00,0.1248
1033.00,0.1254
1032.00,0.1261
1031.00,0.1270
1030.00,0.1281
1029.00,0.1296
1028.00,0.1317
1027.00,0.1345
1026.00,0.1381
1025.00,0.1418
1024.00,0.1447
1023.00,0.1461
1022.00,0.1458
1021.00,0.1444
1020.00,0.1430
1019.00,0.1423
1018.00,0.1424
1017.00,0.1433
1016.00,0.1446
1015.00,0.1463
1014.00,0.1484
1013.00,0.1506
1012.00,0.1531
1011.00,0.1559
1010.00,0.1589
1009.00,0.1623
1008.00,0.1658
1007.00,0.1698
1006.00,0.1740
1005.00,0.1786
1004.00,0.1836
1003.00,0.1888
1002.00,0.1944
1001.00,0.2002
1000.00,0.2060
999.00,0.2118
998.00,0.2175
997.00,0.2229
996.00,0.2280
995.00,0.2329
994.00,0.2373
993.00,0.2413
992.00,0.2448
991.00,0.2478
990.00,0.2504
989.00,0.2525
988.00,0.2540
987.00,0.2550
986.00,0.2557
985.00,0.2559
984.00,0.2559
983.00,0.2557
982.00,0.2552
981.00,0.2546
980.00,0.2537
979.00,0.2528
978.00,0.2517
977.00,0.2505
976.00,0.2491
975.00,0.2476
974.00,0.2458
973.00,0.2437
972.00,0.2413
971.00,0.2387
970.00,0.2357
969.00,0.2325
968.00,0.2290
967.00,0.2253
966.00,0.2216
965.00,0.2177
964.00,0.2139
963.00,0.2101
962.00,0.2067
961.00,0.2037
960.00,0.2013
959.00,0.1997
958.00,0.1993
957.00,0.2006
956.00,0.2041
955.00,0.2107
954.00,0.2209
953.00,0.2348
952.00,0.2516
951.00,0.2694
950.00,0.2855
949.00,0.2973
948.00,0.3034
947.00,0.3041
946.00,0.3009
945.00,0.2959
944.00,0.2907
943.00,0.2863
942.00,0.2830
941.00,0.2811
940.00,0.2804
939.00,0.2810
938.00,0.2827
937.00,0.2853
936.00,0.2889
935.00,0.2932
934.00,0.2981
933.00,0.3035
932.00,0.3093
931.00,0.3154
930.00,0.3216
929.00,0.3279
928.00,0.3342
927.00,0.3403
926.00,0.3463
925.00,0.3520
924.00,0.3573
923.00,0.3624
922.00,0.3671
921.00,0.3714
920.00,0.3751
919.00,0.3784
918.00,0.3811
917.00,0.3832
916.00,0.3846
915.00,0.3853
914.00,0.3853
913.00,0.3846
912.00,0.3832
911.00,0.3811
910.00,0.3782
909.00,0.3746
908.00,0.3699
907.00,0.3645
906.00,0.3582
905.00,0.3512
904.00,0.3435
903.00,0.3350
902.00,0.3258
901.00,0.3161
900.00,0.3057
899.00,0.2949
898.00,0.2837
897.00,0.2723
896.00,0.2607
895.00,0.2492
894.00,0.2379
893.00,0.2267
892.00,0.2159
891.00,0.2055
890.00,0.1956
889.00,0.1862
888.00,0.1776
887.00,0.1698
886.00,0.1632
885.00,0.1581
884.00,0.1552
883.00,0.1556
882.00,0.1608
881.00,0.1720
880.00,0.1896
879.00,0.2125
878.00,0.2385
877.00,0.2649
876.00,0.2898
875.00,0.3120
874.00,0.3313
873.00,0.3476
872.00,0.3614
871.00,0.3741
870.00,0.3874
869.00,0.4036
868.00,0.4257
867.00,0.4571
866.00,0.5002
865.00,0.5550
864.00,0.6164
863.00,0.6747
862.00,0.7177
861.00,0.7378
860.00,0.7365
859.00,0.7214
858.00,0.7002
857.00,0.6774
856.00,0.6552
855.00,0.6344
854.00,0.6151
853.00,0.5971
852.00,0.5800
851.00,0.5638
850.00,0.5486
849.00,0.5341
848.00,0.5204
847.00,0.5072
846.00,0.4947
845.00,0.4826
844.00,0.4707
843.00,0.4592
842.00,0.4481
841.00,0.4373
840.00,0.4269
839.00,0.4168
838.00,0.4070
837.00,0.3974
836.00,0.3880
835.00,0.3788
834.00,0.3699
833.00,0.3612
832.00,0.3527
831.00,0.3444
830.00,0.3363
829.00,0.3284
828.00,0.3206
827.00,0.3131
826.00,0.3059
825.00,0.2989
824.00,0.2919
823.00,0.2850
822.00,0.2783
821.00,0.2718
820.00,0.2655
819.00,0.2594
818.00,0.2535
817.00,0.2477
816.00,0.2421
815.00,0.2366
814.00,0.2312
813.00,0.2259
812.00,0.2206
811.00,0.2153
810.00,0.2101
809.00,0.2051
808.00,0.2001
807.00,0.1952
806.00,0.1904
805.00,0.1856
804.00,0.1807
803.00,0.1759
802.00,0.1711
801.00,0.1664
800.00,0.1616
799.00,0.1571
798.00,0.1529
797.00,0.1495
796.00,0.1480
795.00,0.1501
794.00,0.1586
793.00,0.1760
792.00,0.2033
791.00,0.2386
790.00,0.2774
789.00,0.3149
788.00,0.3476
787.00,0.3725
786.00,0.3861
785.00,0.3859
784.00,0.3731
783.00,0.3529
782.00,0.3306
781.00,0.3098
780.00,0.2917
779.00,0.2767
778.00,0.2640
777.00,0.2529
776.00,0.2428
775.00,0.2338
774.00,0.2259
773.00,0.2190
772.00,0.2128
771.00,0.2074
770.00,0.2026
769.00,0.1982
768.00,0.1939
767.00,0.1900
766.00,0.1864
765.00,0.1830
764.00,0.1796
763.00,0.1765
762.00,0.1737
761.00,0.1709
760.00,0.1681
759.00,0.1654
758.00,0.1629
757.00,0.1604
756.00,0.1579
755.00,0.1556
754.00,0.1535
753.00,0.1514
752.00,0.1493
751.00,0.1472
750.00,0.1453
749.00,0.1434
748.00,0.1415
747.00,0.1397
746.00,0.1381
745.00,0.1366
744.00,0.1350
743.00,0.1335
742.00,0.1321
741.00,0.1308
740.00,0.1294
739.00,0.1281
738.00,0.1269
737.00,0.1258
736.00,0.1245
735.00,0.1233
734.00,0.1223
733.00,0.1211
732.00,0.1199
731.00,0.1188
730.00,0.1177
729.00,0.1167
728.00,0.1156
727.00,0.1146
726.00,0.1136
725.00,0.1126
724.00,0.1115
723.00,0.1104
722.00,0.1092
721.00,0.1079
720.00,0.1069
719.00,0.1061
718.00,0.1055
717.00,0.1048
716.00,0.1039
715.00,0.1029
714.00,0.1020
713.00,0.1010
712.00,0.0999
711.00,0.0987
710.00,0.0977
709.00,0.0967
708.00,0.0957
707.00,0.0946
706.00,0.0936
705.00,0.0925
704.00,0.0913
703.00,0.0901
702.00,0.0891
701.00,0.0880
700.00,0.0867
699.00,0.0855
698.00,0.0844
697.00,0.0831
696.00,0.0818
695.00,0.0805
694.00,0.0793
693.00,0.0780
692.00,0.0767
691.00,0.0754
690.00,0.0743
689.00,0.0733
688.00,0.0721
687.00,0.0709
686.00,0.0698
685.00,0.0686
684.00,0.0674
683.00,0.0663
682.00,0.0652
681.00,0.0641
680.00,0.0640
679.00,0.0629
678.00,0.0619
677.00,0.0609
676.00,0.0599
675.00,0.0589
674.00,0.0581
673.00,0.0573
672.00,0.0566
671.00,0.0542
670.00,0.0541
669.00,0.0547
668.00,0.0563
667.00,0.0573
666.00,0.0564
665.00,0.0553
664.00,0.0550
663.00,0.0558
662.00,0.0572
661.00,0.0591
660.00,0.0614
659.00,0.0642
658.00,0.0675
657.00,0.0713
656.00,0.0756
655.00,0.0806
654.00,0.0862
653.00,0.0923
652.00,0.0989
651.00,0.1058
650.00,0.1130
649.00,0.1204
648.00,0.1282
647.00,0.1364
646.00,0.1448
645.00,0.1537
644.00,0.1635
643.00,0.1744
642.00,0.1868
641.00,0.2013
640.00,0.2182
639.00,0.2380
638.00,0.2604
637.00,0.2851
636.00,0.3110
635.00,0.3355
634.00,0.3549
633.00,0.3659
632.00,0.3667
631.00,0.3568
630.00,0.3381
629.00,0.3143
628.00,0.2894
627.00,0.2670
626.00,0.2500
625.00,0.2403
624.00,0.2386
623.00,0.2438
622.00,0.2541
621.00,0.2668
620.00,0.2801
619.00,0.2927
618.00,0.3045
617.00,0.3163
616.00,0.3288
615.00,0.3422
614.00,0.3563
613.00,0.3711
612.00,0.3860
611.00,0.3999
610.00,0.4111
609.00,0.4189
608.00,0.4229
607.00,0.4233
606.00,0.4202
605.00,0.4144
604.00,0.4065
603.00,0.3970
602.00,0.3864
601.00,0.3758
600.00,0.3666
599.00,0.3600
598.00,0.3575
597.00,0.3600
596.00,0.3666
595.00,0.3734
594.00,0.3750
593.00,0.3673
592.00,0.3507
591.00,0.3290
590.00,0.3069
589.00,0.2873
588.00,0.2712
587.00,0.2582
586.00,0.2476
585.00,0.2386
584.00,0.2309
583.00,0.2239
582.00,0.2177
581.00,0.2121
580.00,0.2070
579.00,0.2023
578.00,0.1981
577.00,0.1942
576.00,0.1905
575.00,0.1871
574.00,0.1841
573.00,0.1813
572.00,0.1786
571.00,0.1763
570.00,0.1743
569.00,0.1723
568.00,0.1703
567.00,0.1684
566.00,0.1667
565.00,0.1650
564.00,0.1633
563.00,0.1617
562.00,0.1604
561.00,0.1589
560.00,0.1574
559.00,0.1559
558.00,0.1546
557.00,0.1532
556.00,0.1518
555.00,0.1505
554.00,0.1494
553.00,0.1483
552.00,0.1470
551.00,0.1457
550.00,0.1444
549.00,0.1429
548.00,0.1412
547.00,0.1397
546.00,0.1383
545.00,0.1370
544.00,0.1356
543.00,0.1343
542.00,0.1332
541.00,0.1320
540.00,0.1308
539.00,0.1296
538.00,0.1286
537.00,0.1275
536.00,0.1263
535.00,0.1250
534.00,0.1239
533.00,0.1228
532.00,0.1217
531.00,0.1207
530.00,0.1198
529.00,0.1186
528.00,0.1172
527.00,0.1159
526.00,0.1150
525.00,0.1142
524.00,0.1134
523.00,0.1126
522.00,0.1120
521.00,0.1112
520.00,0.1103
519.00,0.1095
518.00,0.1089
517.00,0.1082
516.00,0.1072
515.00,0.1064
514.00,0.1058
513.00,0.1053
512.00,0.1047
511.00,0.1042
510.00,0.1039
509.00,0.1035
508.00,0.1028
507.00,0.1021
506.00,0.1015
505.00,0.1007
504.00,0.0996
503.00,0.0987
502.00,0.0983
501.00,0.0980
500.00,0.0975
499.00,0.0969
498.00,0.0965
497.00,0.0960
496.00,0.0953
495.00,0.0947
494.00,0.0943
493.00,0.0940
492.00,0.0936
491.00,0.0933
490.00,0.0931
489.00,0.0929
488.00,0.0925
487.00,0.0922
486.00,0.0921
485.00,0.0919
484.00,0.0917
483.00,0.0917
482.00,0.0919
481.00,0.0919
480.00,0.0914
479.00,0.0909
478.00,0.0907
477.00,0.0905
476.00,0.0899
475.00,0.0892
474.00,0.0888
473.00,0.0885
472.00,0.0882
471.00,0.0881
470.00,0.0882
469.00,0.0881
468.00,0.0875
467.00,0.0868
466.00,0.0863
465.00,0.0857
464.00,0.0849
463.00,0.0843
462.00,0.0841
461.00,0.0834
460.00,0.0821
459.00,0.0808
458.00,0.0803
457.00,0.0802
456.00,0.0799
455.00,0.0796
454.00,0.0796
453.00,0.0795
452.00,0.0789
451.00,0.0782
450.00,0.0778
449.00,0.0772
448.00,0.0762
447.00,0.0754
446.00,0.0748
445.00,0.0741
444.00,0.0731
443.00,0.0723
442.00,0.0720
441.00,0.0715
440.00,0.0703
439.00,0.0691
438.00,0.0682
437.00,0.0672
436.00,0.0660
435.00,0.0652
434.00,0.0650
433.00,0.0649
432.00,0.0644
431.00,0.0642
430.00,0.0643
429.00,0.0641
428.00,0.0633
427.00,0.0628
426.00,0.0632
425.00,0.0641
424.00,0.0648
423.00,0.0658
422.00,0.0673
421.00,0.0688
420.00,0.0710
419.00,0.0758
418.00,0.0832
417.00,0.0915
416.00,0.1002
415.00,0.1112
414.00,0.1261
413.00,0.1443
412.00,0.1653
411.00,0.1893
410.00,0.2155
409.00,0.2410
408.00,0.2636
407.00,0.2825
406.00,0.2964
405.00,0.3036
404.00,0.3045
403.00,0.3010
402.00,0.2939
401.00,0.2829
400.00,0.2682
