Created as New Dataset,Sample 849 By YargerLab Date Saturday, April 18 2026
cm-1,A
4000.00,0.0223
3999.00,0.0224
3998.00,0.0224
3997.00,0.0224
3996.00,0.0224
3995.00,0.0225
3994.00,0.0226
3993.00,0.0227
3992.00,0.0228
3991.00,0.0229
3990.00,0.0230
3989.00,0.0230
3988.00,0.0230
3987.00,0.0230
3986.00,0.0230
3985.00,0.0229
3984.00,0.0228
3983.00,0.0228
3982.00,0.0227
3981.00,0.0226
3980.00,0.0226
3979.00,0.0226
3978.00,0.0225
3977.00,0.0225
3976.00,0.0225
3975.00,0.0225
3974.00,0.0224
3973.00,0.0224
3972.00,0.0223
3971.00,0.0223
3970.00,0.0223
3969.00,0.0223
3968.00,0.0222
3967.00,0.0222
3966.00,0.0222
3965.00,0.0222
3964.00,0.0222
3963.00,0.0222
3962.00,0.0222
3961.00,0.0222
3960.00,0.0222
3959.00,0.0223
3958.00,0.0223
3957.00,0.0223
3956.00,0.0223
3955.00,0.0222
3954.00,0.0222
3953.00,0.0222
3952.00,0.0222
3951.00,0.0222
3950.00,0.0222
3949.00,0.0222
3948.00,0.0222
3947.00,0.0221
3946.00,0.0221
3945.00,0.0221
3944.00,0.0221
3943.00,0.0222
3942.00,0.0222
3941.00,0.0222
3940.00,0.0222
3939.00,0.0222
3938.00,0.0222
3937.00,0.0222
3936.00,0.0221
3935.00,0.0221
3934.00,0.0221
3933.00,0.0221
3932.00,0.0221
3931.00,0.0221
3930.00,0.0220
3929.00,0.0220
3928.00,0.0220
3927.00,0.0220
3926.00,0.0220
3925.00,0.0220
3924.00,0.0220
3923.00,0.0220
3922.00,0.0219
3921.00,0.0219
3920.00,0.0219
3919.00,0.0219
3918.00,0.0219
3917.00,0.0219
3916.00,0.0219
3915.00,0.0219
3914.00,0.0219
3913.00,0.0218
3912.00,0.0218
3911.00,0.0218
3910.00,0.0218
3909.00,0.0218
3908.00,0.0218
3907.00,0.0219
3906.00,0.0219
3905.00,0.0219
3904.00,0.0220
3903.00,0.0220
3902.00,0.0220
3901.00,0.0220
3900.00,0.0220
3899.00,0.0220
3898.00,0.0219
3897.00,0.0219
3896.00,0.0218
3895.00,0.0218
3894.00,0.0218
3893.00,0.0218
3892.00,0.0219
3891.00,0.0218
3890.00,0.0218
3889.00,0.0218
3888.00,0.0218
3887.00,0.0218
3886.00,0.0218
3885.00,0.0217
3884.00,0.0217
3883.00,0.0217
3882.00,0.0218
3881.00,0.0218
3880.00,0.0218
3879.00,0.0218
3878.00,0.0217
3877.00,0.0217
3876.00,0.0217
3875.00,0.0217
3874.00,0.0216
3873.00,0.0216
3872.00,0.0216
3871.00,0.0217
3870.00,0.0217
3869.00,0.0217
3868.00,0.0217
3867.00,0.0217
3866.00,0.0217
3865.00,0.0217
3864.00,0.0217
3863.00,0.0216
3862.00,0.0216
3861.00,0.0216
3860.00,0.0216
3859.00,0.0216
3858.00,0.0216
3857.00,0.0215
3856.00,0.0215
3855.00,0.0216
3854.00,0.0216
3853.00,0.0217
3852.00,0.0218
3851.00,0.0219
3850.00,0.0220
3849.00,0.0220
3848.00,0.0220
3847.00,0.0220
3846.00,0.0219
3845.00,0.0219
3844.00,0.0218
3843.00,0.0218
3842.00,0.0217
3841.00,0.0217
3840.00,0.0216
3839.00,0.0216
3838.00,0.0216
3837.00,0.0216
3836.00,0.0216
3835.00,0.0216
3834.00,0.0216
3833.00,0.0216
3832.00,0.0216
3831.00,0.0216
3830.00,0.0216
3829.00,0.0216
3828.00,0.0216
3827.00,0.0216
3826.00,0.0215
3825.00,0.0215
3824.00,0.0214
3823.00,0.0214
3822.00,0.0214
3821.00,0.0214
3820.00,0.0214
3819.00,0.0214
3818.00,0.0214
3817.00,0.0215
3816.00,0.0215
3815.00,0.0214
3814.00,0.0214
3813.00,0.0214
3812.00,0.0214
3811.00,0.0213
3810.00,0.0213
3809.00,0.0213
3808.00,0.0213
3807.00,0.0214
3806.00,0.0214
3805.00,0.0214
3804.00,0.0214
3803.00,0.0215
3802.00,0.0215
3801.00,0.0215
3800.00,0.0215
3799.00,0.0215
3798.00,0.0216
3797.00,0.0216
3796.00,0.0216
3795.00,0.0215
3794.00,0.0215
3793.00,0.0214
3792.00,0.0214
3791.00,0.0214
3790.00,0.0213
3789.00,0.0213
3788.00,0.0213
3787.00,0.0213
3786.00,0.0213
3785.00,0.0213
3784.00,0.0213
3783.00,0.0213
3782.00,0.0212
3781.00,0.0212
3780.00,0.0212
3779.00,0.0212
3778.00,0.0212
3777.00,0.0211
3776.00,0.0211
3775.00,0.0211
3774.00,0.0210
3773.00,0.0210
3772.00,0.0210
3771.00,0.0210
3770.00,0.0210
3769.00,0.0210
3768.00,0.0210
3767.00,0.0210
3766.00,0.0210
3765.00,0.0210
3764.00,0.0209
3763.00,0.0209
3762.00,0.0208
3761.00,0.0208
3760.00,0.0208
3759.00,0.0208
3758.00,0.0208
3757.00,0.0208
3756.00,0.0208
3755.00,0.0207
3754.00,0.0207
3753.00,0.0207
3752.00,0.0207
3751.00,0.0207
3750.00,0.0207
3749.00,0.0207
3748.00,0.0207
3747.00,0.0207
3746.00,0.0207
3745.00,0.0207
3744.00,0.0207
3743.00,0.0207
3742.00,0.0206
3741.00,0.0206
3740.00,0.0206
3739.00,0.0206
3738.00,0.0206
3737.00,0.0206
3736.00,0.0206
3735.00,0.0206
3734.00,0.0206
3733.00,0.0206
3732.00,0.0205
3731.00,0.0205
3730.00,0.0204
3729.00,0.0204
3728.00,0.0204
3727.00,0.0205
3726.00,0.0205
3725.00,0.0205
3724.00,0.0205
3723.00,0.0204
3722.00,0.0204
3721.00,0.0204
3720.00,0.0203
3719.00,0.0203
3718.00,0.0204
3717.00,0.0204
3716.00,0.0204
3715.00,0.0204
3714.00,0.0204
3713.00,0.0204
3712.00,0.0203
3711.00,0.0203
3710.00,0.0203
3709.00,0.0203
3708.00,0.0203
3707.00,0.0203
3706.00,0.0203
3705.00,0.0202
3704.00,0.0202
3703.00,0.0202
3702.00,0.0201
3701.00,0.0201
3700.00,0.0201
3699.00,0.0201
3698.00,0.0201
3697.00,0.0201
3696.00,0.0201
3695.00,0.0201
3694.00,0.0201
3693.00,0.0200
3692.00,0.0200
3691.00,0.0200
3690.00,0.0200
3689.00,0.0200
3688.00,0.0200
3687.00,0.0200
3686.00,0.0200
3685.00,0.0200
3684.00,0.0201
3683.00,0.0201
3682.00,0.0201
3681.00,0.0200
3680.00,0.0200
3679.00,0.0199
3678.00,0.0199
3677.00,0.0199
3676.00,0.0199
3675.00,0.0200
3674.00,0.0200
3673.00,0.0200
3672.00,0.0201
3671.00,0.0201
3670.00,0.0201
3669.00,0.0200
3668.00,0.0200
3667.00,0.0200
3666.00,0.0200
3665.00,0.0200
3664.00,0.0199
3663.00,0.0199
3662.00,0.0199
3661.00,0.0199
3660.00,0.0199
3659.00,0.0199
3658.00,0.0200
3657.00,0.0200
3656.00,0.0200
3655.00,0.0200
3654.00,0.0201
3653.00,0.0201
3652.00,0.0202
3651.00,0.0202
3650.00,0.0202
3649.00,0.0202
3648.00,0.0203
3647.00,0.0203
3646.00,0.0203
3645.00,0.0202
3644.00,0.0202
3643.00,0.0202
3642.00,0.0201
3641.00,0.0201
3640.00,0.0200
3639.00,0.0200
3638.00,0.0200
3637.00,0.0200
3636.00,0.0200
3635.00,0.0200
3634.00,0.0201
3633.00,0.0201
3632.00,0.0201
3631.00,0.0201
3630.00,0.0201
3629.00,0.0201
3628.00,0.0201
3627.00,0.0201
3626.00,0.0201
3625.00,0.0201
3624.00,0.0201
3623.00,0.0201
3622.00,0.0200
3621.00,0.0200
3620.00,0.0200
3619.00,0.0200
3618.00,0.0200
3617.00,0.0200
3616.00,0.0200
3615.00,0.0200
3614.00,0.0200
3613.00,0.0201
3612.00,0.0201
3611.00,0.0201
3610.00,0.0200
3609.00,0.0200
3608.00,0.0200
3607.00,0.0200
3606.00,0.0199
3605.00,0.0199
3604.00,0.0198
3603.00,0.0198
3602.00,0.0198
3601.00,0.0198
3600.00,0.0198
3599.00,0.0198
3598.00,0.0198
3597.00,0.0198
3596.00,0.0198
3595.00,0.0198
3594.00,0.0198
3593.00,0.0198
3592.00,0.0198
3591.00,0.0198
3590.00,0.0198
3589.00,0.0198
3588.00,0.0198
3587.00,0.0198
3586.00,0.0198
3585.00,0.0198
3584.00,0.0198
3583.00,0.0198
3582.00,0.0198
3581.00,0.0198
3580.00,0.0198
3579.00,0.0198
3578.00,0.0198
3577.00,0.0198
3576.00,0.0198
3575.00,0.0199
3574.00,0.0199
3573.00,0.0199
3572.00,0.0199
3571.00,0.0199
3570.00,0.0200
3569.00,0.0200
3568.00,0.0201
3567.00,0.0202
3566.00,0.0202
3565.00,0.0201
3564.00,0.0201
3563.00,0.0201
3562.00,0.0201
3561.00,0.0200
3560.00,0.0200
3559.00,0.0200
3558.00,0.0200
3557.00,0.0200
3556.00,0.0200
3555.00,0.0200
3554.00,0.0200
3553.00,0.0200
3552.00,0.0200
3551.00,0.0200
3550.00,0.0200
3549.00,0.0200
3548.00,0.0200
3547.00,0.0200
3546.00,0.0200
3545.00,0.0200
3544.00,0.0200
3543.00,0.0200
3542.00,0.0200
3541.00,0.0200
3540.00,0.0200
3539.00,0.0200
3538.00,0.0201
3537.00,0.0201
3536.00,0.0201
3535.00,0.0201
3534.00,0.0201
3533.00,0.0201
3532.00,0.0202
3531.00,0.0202
3530.00,0.0202
3529.00,0.0202
3528.00,0.0202
3527.00,0.0202
3526.00,0.0202
3525.00,0.0201
3524.00,0.0202
3523.00,0.0202
3522.00,0.0202
3521.00,0.0202
3520.00,0.0202
3519.00,0.0202
3518.00,0.0201
3517.00,0.0201
3516.00,0.0201
3515.00,0.0202
3514.00,0.0202
3513.00,0.0202
3512.00,0.0203
3511.00,0.0203
3510.00,0.0203
3509.00,0.0203
3508.00,0.0203
3507.00,0.0203
3506.00,0.0203
3505.00,0.0203
3504.00,0.0203
3503.00,0.0203
3502.00,0.0203
3501.00,0.0203
3500.00,0.0203
3499.00,0.0203
3498.00,0.0203
3497.00,0.0203
3496.00,0.0203
3495.00,0.0203
3494.00,0.0204
3493.00,0.0204
3492.00,0.0204
3491.00,0.0204
3490.00,0.0204
3489.00,0.0204
3488.00,0.0205
3487.00,0.0205
3486.00,0.0205
3485.00,0.0206
3484.00,0.0206
3483.00,0.0206
3482.00,0.0206
3481.00,0.0206
3480.00,0.0206
3479.00,0.0206
3478.00,0.0206
3477.00,0.0207
3476.00,0.0207
3475.00,0.0207
3474.00,0.0208
3473.00,0.0208
3472.00,0.0207
3471.00,0.0207
3470.00,0.0207
3469.00,0.0207
3468.00,0.0207
3467.00,0.0208
3466.00,0.0209
3465.00,0.0210
3464.00,0.0210
3463.00,0.0211
3462.00,0.0211
3461.00,0.0211
3460.00,0.0211
3459.00,0.0212
3458.00,0.0212
3457.00,0.0213
3456.00,0.0213
3455.00,0.0213
3454.00,0.0214
3453.00,0.0214
3452.00,0.0214
3451.00,0.0214
3450.00,0.0215
3449.00,0.0216
3448.00,0.0216
3447.00,0.0217
3446.00,0.0217
3445.00,0.0218
3444.00,0.0219
3443.00,0.0219
3442.00,0.0220
3441.00,0.0220
3440.00,0.0219
3439.00,0.0219
3438.00,0.0218
3437.00,0.0218
3436.00,0.0218
3435.00,0.0219
3434.00,0.0220
3433.00,0.0221
3432.00,0.0222
3431.00,0.0222
3430.00,0.0223
3429.00,0.0224
3428.00,0.0226
3427.00,0.0227
3426.00,0.0228
3425.00,0.0229
3424.00,0.0230
3423.00,0.0231
3422.00,0.0231
3421.00,0.0232
3420.00,0.0232
3419.00,0.0233
3418.00,0.0234
3417.00,0.0234
3416.00,0.0234
3415.00,0.0234
3414.00,0.0234
3413.00,0.0235
3412.00,0.0235
3411.00,0.0236
3410.00,0.0237
3409.00,0.0238
3408.00,0.0239
3407.00,0.0240
3406.00,0.0240
3405.00,0.0240
3404.00,0.0239
3403.00,0.0237
3402.00,0.0236
3401.00,0.0237
3400.00,0.0238
3399.00,0.0241
3398.00,0.0243
3397.00,0.0245
3396.00,0.0246
3395.00,0.0246
3394.00,0.0245
3393.00,0.0245
3392.00,0.0246
3391.00,0.0247
3390.00,0.0250
3389.00,0.0252
3388.00,0.0254
3387.00,0.0255
3386.00,0.0256
3385.00,0.0257
3384.00,0.0258
3383.00,0.0259
3382.00,0.0260
3381.00,0.0260
3380.00,0.0261
3379.00,0.0262
3378.00,0.0263
3377.00,0.0264
3376.00,0.0265
3375.00,0.0266
3374.00,0.0266
3373.00,0.0266
3372.00,0.0265
3371.00,0.0264
3370.00,0.0264
3369.00,0.0265
3368.00,0.0267
3367.00,0.0269
3366.00,0.0272
3365.00,0.0274
3364.00,0.0276
3363.00,0.0277
3362.00,0.0278
3361.00,0.0279
3360.00,0.0280
3359.00,0.0282
3358.00,0.0283
3357.00,0.0285
3356.00,0.0286
3355.00,0.0286
3354.00,0.0286
3353.00,0.0285
3352.00,0.0285
3351.00,0.0285
3350.00,0.0287
3349.00,0.0289
3348.00,0.0291
3347.00,0.0293
3346.00,0.0294
3345.00,0.0294
3344.00,0.0295
3343.00,0.0296
3342.00,0.0296
3341.00,0.0297
3340.00,0.0297
3339.00,0.0298
3338.00,0.0300
3337.00,0.0302
3336.00,0.0304
3335.00,0.0307
3334.00,0.0309
3333.00,0.0310
3332.00,0.0312
3331.00,0.0313
3330.00,0.0314
3329.00,0.0314
3328.00,0.0314
3327.00,0.0314
3326.00,0.0315
3325.00,0.0317
3324.00,0.0319
3323.00,0.0322
3322.00,0.0324
3321.00,0.0325
3320.00,0.0327
3319.00,0.0329
3318.00,0.0330
3317.00,0.0331
3316.00,0.0333
3315.00,0.0334
3314.00,0.0335
3313.00,0.0336
3312.00,0.0336
3311.00,0.0336
3310.00,0.0335
3309.00,0.0335
3308.00,0.0335
3307.00,0.0336
3306.00,0.0338
3305.00,0.0341
3304.00,0.0345
3303.00,0.0348
3302.00,0.0352
3301.00,0.0354
3300.00,0.0356
3299.00,0.0357
3298.00,0.0358
3297.00,0.0358
3296.00,0.0359
3295.00,0.0359
3294.00,0.0361
3293.00,0.0363
3292.00,0.0365
3291.00,0.0369
3290.00,0.0372
3289.00,0.0375
3288.00,0.0378
3287.00,0.0380
3286.00,0.0382
3285.00,0.0384
3284.00,0.0385
3283.00,0.0387
3282.00,0.0389
3281.00,0.0391
3280.00,0.0393
3279.00,0.0395
3278.00,0.0397
3277.00,0.0398
3276.00,0.0399
3275.00,0.0401
3274.00,0.0402
3273.00,0.0402
3272.00,0.0404
3271.00,0.0406
3270.00,0.0409
3269.00,0.0413
3268.00,0.0417
3267.00,0.0420
3266.00,0.0423
3265.00,0.0425
3264.00,0.0428
3263.00,0.0430
3262.00,0.0432
3261.00,0.0434
3260.00,0.0436
3259.00,0.0438
3258.00,0.0439
3257.00,0.0440
3256.00,0.0442
3255.00,0.0444
3254.00,0.0447
3253.00,0.0449
3252.00,0.0452
3251.00,0.0453
3250.00,0.0454
3249.00,0.0455
3248.00,0.0456
3247.00,0.0458
3246.00,0.0460
3245.00,0.0463
3244.00,0.0466
3243.00,0.0469
3242.00,0.0471
3241.00,0.0473
3240.00,0.0476
3239.00,0.0478
3238.00,0.0480
3237.00,0.0481
3236.00,0.0482
3235.00,0.0483
3234.00,0.0485
3233.00,0.0488
3232.00,0.0491
3231.00,0.0495
3230.00,0.0498
3229.00,0.0501
3228.00,0.0504
3227.00,0.0507
3226.00,0.0510
3225.00,0.0512
3224.00,0.0515
3223.00,0.0517
3222.00,0.0520
3221.00,0.0522
3220.00,0.0525
3219.00,0.0528
3218.00,0.0531
3217.00,0.0533
3216.00,0.0536
3215.00,0.0538
3214.00,0.0541
3213.00,0.0543
3212.00,0.0546
3211.00,0.0548
3210.00,0.0551
3209.00,0.0554
3208.00,0.0556
3207.00,0.0559
3206.00,0.0562
3205.00,0.0564
3204.00,0.0567
3203.00,0.0570
3202.00,0.0573
3201.00,0.0576
3200.00,0.0579
3199.00,0.0581
3198.00,0.0584
3197.00,0.0587
3196.00,0.0590
3195.00,0.0593
3194.00,0.0596
3193.00,0.0599
3192.00,0.0603
3191.00,0.0606
3190.00,0.0609
3189.00,0.0613
3188.00,0.0616
3187.00,0.0619
3186.00,0.0622
3185.00,0.0625
3184.00,0.0628
3183.00,0.0631
3182.00,0.0634
3181.00,0.0636
3180.00,0.0639
3179.00,0.0642
3178.00,0.0645
3177.00,0.0648
3176.00,0.0651
3175.00,0.0653
3174.00,0.0656
3173.00,0.0659
3172.00,0.0662
3171.00,0.0665
3170.00,0.0669
3169.00,0.0672
3168.00,0.0675
3167.00,0.0677
3166.00,0.0680
3165.00,0.0682
3164.00,0.0685
3163.00,0.0688
3162.00,0.0691
3161.00,0.0694
3160.00,0.0697
3159.00,0.0700
3158.00,0.0702
3157.00,0.0705
3156.00,0.0708
3155.00,0.0710
3154.00,0.0712
3153.00,0.0715
3152.00,0.0718
3151.00,0.0722
3150.00,0.0726
3149.00,0.0729
3148.00,0.0733
3147.00,0.0736
3146.00,0.0740
3145.00,0.0743
3144.00,0.0746
3143.00,0.0749
3142.00,0.0752
3141.00,0.0755
3140.00,0.0758
3139.00,0.0761
3138.00,0.0764
3137.00,0.0768
3136.00,0.0772
3135.00,0.0776
3134.00,0.0780
3133.00,0.0783
3132.00,0.0786
3131.00,0.0789
3130.00,0.0793
3129.00,0.0796
3128.00,0.0800
3127.00,0.0804
3126.00,0.0807
3125.00,0.0810
3124.00,0.0813
3123.00,0.0815
3122.00,0.0818
3121.00,0.0821
3120.00,0.0824
3119.00,0.0828
3118.00,0.0831
3117.00,0.0836
3116.00,0.0840
3115.00,0.0845
3114.00,0.0851
3113.00,0.0856
3112.00,0.0862
3111.00,0.0868
3110.00,0.0875
3109.00,0.0883
3108.00,0.0892
3107.00,0.0903
3106.00,0.0915
3105.00,0.0928
3104.00,0.0941
3103.00,0.0953
3102.00,0.0964
3101.00,0.0973
3100.00,0.0980
3099.00,0.0984
3098.00,0.0987
3097.00,0.0989
3096.00,0.0991
3095.00,0.0994
3094.00,0.0999
3093.00,0.1008
3092.00,0.1023
3091.00,0.1046
3090.00,0.1079
3089.00,0.1120
3088.00,0.1167
3087.00,0.1217
3086.00,0.1264
3085.00,0.1305
3084.00,0.1335
3083.00,0.1349
3082.00,0.1346
3081.00,0.1327
3080.00,0.1300
3079.00,0.1269
3078.00,0.1239
3077.00,0.1213
3076.00,0.1192
3075.00,0.1175
3074.00,0.1161
3073.00,0.1152
3072.00,0.1146
3071.00,0.1144
3070.00,0.1144
3069.00,0.1145
3068.00,0.1146
3067.00,0.1150
3066.00,0.1159
3065.00,0.1175
3064.00,0.1194
3063.00,0.1213
3062.00,0.1226
3061.00,0.1233
3060.00,0.1236
3059.00,0.1236
3058.00,0.1238
3057.00,0.1242
3056.00,0.1246
3055.00,0.1252
3054.00,0.1257
3053.00,0.1264
3052.00,0.1272
3051.00,0.1280
3050.00,0.1287
3049.00,0.1288
3048.00,0.1281
3047.00,0.1269
3046.00,0.1253
3045.00,0.1238
3044.00,0.1226
3043.00,0.1218
3042.00,0.1212
3041.00,0.1208
3040.00,0.1205
3039.00,0.1201
3038.00,0.1197
3037.00,0.1193
3036.00,0.1191
3035.00,0.1191
3034.00,0.1195
3033.00,0.1202
3032.00,0.1210
3031.00,0.1218
3030.00,0.1224
3029.00,0.1227
3028.00,0.1228
3027.00,0.1227
3026.00,0.1224
3025.00,0.1222
3024.00,0.1220
3023.00,0.1219
3022.00,0.1218
3021.00,0.1217
3020.00,0.1216
3019.00,0.1215
3018.00,0.1214
3017.00,0.1214
3016.00,0.1213
3015.00,0.1213
3014.00,0.1214
3013.00,0.1214
3012.00,0.1216
3011.00,0.1217
3010.00,0.1219
3009.00,0.1222
3008.00,0.1226
3007.00,0.1231
3006.00,0.1238
3005.00,0.1244
3004.00,0.1250
3003.00,0.1253
3002.00,0.1254
3001.00,0.1252
3000.00,0.1250
2999.00,0.1247
2998.00,0.1245
2997.00,0.1243
2996.00,0.1243
2995.00,0.1242
2994.00,0.1242
2993.00,0.1241
2992.00,0.1242
2991.00,0.1242
2990.00,0.1242
2989.00,0.1243
2988.00,0.1243
2987.00,0.1244
2986.00,0.1245
2985.00,0.1246
2984.00,0.1246
2983.00,0.1247
2982.00,0.1247
2981.00,0.1249
2980.00,0.1253
2979.00,0.1257
2978.00,0.1261
2977.00,0.1266
2976.00,0.1272
2975.00,0.1278
2974.00,0.1284
2973.00,0.1291
2972.00,0.1299
2971.00,0.1309
2970.00,0.1321
2969.00,0.1335
2968.00,0.1350
2967.00,0.1367
2966.00,0.1384
2965.00,0.1401
2964.00,0.1418
2963.00,0.1433
2962.00,0.1448
2961.00,0.1461
2960.00,0.1472
2959.00,0.1483
2958.00,0.1491
2957.00,0.1499
2956.00,0.1504
2955.00,0.1507
2954.00,0.1508
2953.00,0.1506
2952.00,0.1503
2951.00,0.1499
2950.00,0.1495
2949.00,0.1494
2948.00,0.1495
2947.00,0.1498
2946.00,0.1503
2945.00,0.1511
2944.00,0.1521
2943.00,0.1533
2942.00,0.1548
2941.00,0.1565
2940.00,0.1584
2939.00,0.1606
2938.00,0.1630
2937.00,0.1656
2936.00,0.1683
2935.00,0.1710
2934.00,0.1738
2933.00,0.1766
2932.00,0.1793
2931.00,0.1818
2930.00,0.1843
2929.00,0.1867
2928.00,0.1888
2927.00,0.1906
2926.00,0.1922
2925.00,0.1934
2924.00,0.1942
2923.00,0.1944
2922.00,0.1942
2921.00,0.1934
2920.00,0.1921
2919.00,0.1905
2918.00,0.1885
2917.00,0.1862
2916.00,0.1838
2915.00,0.1813
2914.00,0.1787
2913.00,0.1762
2912.00,0.1739
2911.00,0.1716
2910.00,0.1695
2909.00,0.1675
2908.00,0.1657
2907.00,0.1640
2906.00,0.1625
2905.00,0.1610
2904.00,0.1596
2903.00,0.1583
2902.00,0.1571
2901.00,0.1560
2900.00,0.1549
2899.00,0.1539
2898.00,0.1530
2897.00,0.1521
2896.00,0.1512
2895.00,0.1504
2894.00,0.1496
2893.00,0.1489
2892.00,0.1483
2891.00,0.1477
2890.00,0.1472
2889.00,0.1468
2888.00,0.1465
2887.00,0.1464
2886.00,0.1463
2885.00,0.1464
2884.00,0.1466
2883.00,0.1469
2882.00,0.1474
2881.00,0.1480
2880.00,0.1489
2879.00,0.1499
2878.00,0.1511
2877.00,0.1524
2876.00,0.1538
2875.00,0.1553
2874.00,0.1566
2873.00,0.1578
2872.00,0.1587
2871.00,0.1593
2870.00,0.1596
2869.00,0.1598
2868.00,0.1601
2867.00,0.1606
2866.00,0.1614
2865.00,0.1626
2864.00,0.1642
2863.00,0.1660
2862.00,0.1682
2861.00,0.1706
2860.00,0.1731
2859.00,0.1756
2858.00,0.1778
2857.00,0.1797
2856.00,0.1810
2855.00,0.1817
2854.00,0.1816
2853.00,0.1808
2852.00,0.1793
2851.00,0.1771
2850.00,0.1744
2849.00,0.1713
2848.00,0.1678
2847.00,0.1643
2846.00,0.1608
2845.00,0.1575
2844.00,0.1545
2843.00,0.1518
2842.00,0.1494
2841.00,0.1473
2840.00,0.1456
2839.00,0.1442
2838.00,0.1431
2837.00,0.1422
2836.00,0.1415
2835.00,0.1409
2834.00,0.1403
2833.00,0.1398
2832.00,0.1393
2831.00,0.1389
2830.00,0.1384
2829.00,0.1380
2828.00,0.1376
2827.00,0.1372
2826.00,0.1368
2825.00,0.1364
2824.00,0.1360
2823.00,0.1356
2822.00,0.1352
2821.00,0.1348
2820.00,0.1344
2819.00,0.1340
2818.00,0.1336
2817.00,0.1332
2816.00,0.1328
2815.00,0.1323
2814.00,0.1319
2813.00,0.1315
2812.00,0.1310
2811.00,0.1305
2810.00,0.1301
2809.00,0.1297
2808.00,0.1292
2807.00,0.1288
2806.00,0.1284
2805.00,0.1280
2804.00,0.1275
2803.00,0.1271
2802.00,0.1266
2801.00,0.1262
2800.00,0.1257
2799.00,0.1253
2798.00,0.1248
2797.00,0.1244
2796.00,0.1240
2795.00,0.1236
2794.00,0.1232
2793.00,0.1228
2792.00,0.1223
2791.00,0.1219
2790.00,0.1214
2789.00,0.1210
2788.00,0.1206
2787.00,0.1201
2786.00,0.1197
2785.00,0.1193
2784.00,0.1188
2783.00,0.1183
2782.00,0.1178
2781.00,0.1174
2780.00,0.1169
2779.00,0.1164
2778.00,0.1159
2777.00,0.1154
2776.00,0.1149
2775.00,0.1144
2774.00,0.1140
2773.00,0.1135
2772.00,0.1131
2771.00,0.1127
2770.00,0.1123
2769.00,0.1119
2768.00,0.1115
2767.00,0.1111
2766.00,0.1107
2765.00,0.1103
2764.00,0.1100
2763.00,0.1096
2762.00,0.1093
2761.00,0.1090
2760.00,0.1088
2759.00,0.1085
2758.00,0.1083
2757.00,0.1081
2756.00,0.1079
2755.00,0.1077
2754.00,0.1075
2753.00,0.1073
2752.00,0.1072
2751.00,0.1070
2750.00,0.1068
2749.00,0.1066
2748.00,0.1065
2747.00,0.1063
2746.00,0.1061
2745.00,0.1059
2744.00,0.1058
2743.00,0.1056
2742.00,0.1054
2741.00,0.1053
2740.00,0.1051
2739.00,0.1050
2738.00,0.1049
2737.00,0.1048
2736.00,0.1048
2735.00,0.1047
2734.00,0.1047
2733.00,0.1047
2732.00,0.1048
2731.00,0.1049
2730.00,0.1050
2729.00,0.1051
2728.00,0.1053
2727.00,0.1054
2726.00,0.1056
2725.00,0.1057
2724.00,0.1059
2723.00,0.1061
2722.00,0.1063
2721.00,0.1065
2720.00,0.1067
2719.00,0.1069
2718.00,0.1071
2717.00,0.1074
2716.00,0.1076
2715.00,0.1079
2714.00,0.1082
2713.00,0.1085
2712.00,0.1088
2711.00,0.1091
2710.00,0.1095
2709.00,0.1098
2708.00,0.1103
2707.00,0.1107
2706.00,0.1112
2705.00,0.1116
2704.00,0.1121
2703.00,0.1126
2702.00,0.1130
2701.00,0.1135
2700.00,0.1140
2699.00,0.1145
2698.00,0.1150
2697.00,0.1154
2696.00,0.1158
2695.00,0.1161
2694.00,0.1165
2693.00,0.1168
2692.00,0.1171
2691.00,0.1173
2690.00,0.1175
2689.00,0.1177
2688.00,0.1179
2687.00,0.1181
2686.00,0.1183
2685.00,0.1184
2684.00,0.1186
2683.00,0.1187
2682.00,0.1188
2681.00,0.1188
2680.00,0.1188
2679.00,0.1188
2678.00,0.1188
2677.00,0.1188
2676.00,0.1188
2675.00,0.1188
2674.00,0.1187
2673.00,0.1187
2672.00,0.1186
2671.00,0.1186
2670.00,0.1186
2669.00,0.1187
2668.00,0.1187
2667.00,0.1188
2666.00,0.1189
2665.00,0.1190
2664.00,0.1191
2663.00,0.1191
2662.00,0.1192
2661.00,0.1192
2660.00,0.1192
2659.00,0.1192
2658.00,0.1191
2657.00,0.1189
2656.00,0.1187
2655.00,0.1185
2654.00,0.1182
2653.00,0.1179
2652.00,0.1175
2651.00,0.1171
2650.00,0.1167
2649.00,0.1162
2648.00,0.1157
2647.00,0.1151
2646.00,0.1146
2645.00,0.1141
2644.00,0.1136
2643.00,0.1130
2642.00,0.1125
2641.00,0.1119
2640.00,0.1114
2639.00,0.1109
2638.00,0.1104
2637.00,0.1099
2636.00,0.1094
2635.00,0.1089
2634.00,0.1085
2633.00,0.1080
2632.00,0.1076
2631.00,0.1072
2630.00,0.1068
2629.00,0.1064
2628.00,0.1060
2627.00,0.1056
2626.00,0.1052
2625.00,0.1049
2624.00,0.1045
2623.00,0.1042
2622.00,0.1038
2621.00,0.1035
2620.00,0.1033
2619.00,0.1030
2618.00,0.1029
2617.00,0.1027
2616.00,0.1026
2615.00,0.1024
2614.00,0.1023
2613.00,0.1022
2612.00,0.1022
2611.00,0.1021
2610.00,0.1021
2609.00,0.1020
2608.00,0.1020
2607.00,0.1019
2606.00,0.1019
2605.00,0.1018
2604.00,0.1018
2603.00,0.1017
2602.00,0.1017
2601.00,0.1017
2600.00,0.1016
2599.00,0.1016
2598.00,0.1016
2597.00,0.1016
2596.00,0.1017
2595.00,0.1019
2594.00,0.1021
2593.00,0.1025
2592.00,0.1030
2591.00,0.1036
2590.00,0.1043
2589.00,0.1051
2588.00,0.1060
2587.00,0.1068
2586.00,0.1077
2585.00,0.1085
2584.00,0.1092
2583.00,0.1098
2582.00,0.1102
2581.00,0.1104
2580.00,0.1105
2579.00,0.1105
2578.00,0.1104
2577.00,0.1103
2576.00,0.1101
2575.00,0.1098
2574.00,0.1095
2573.00,0.1091
2572.00,0.1088
2571.00,0.1085
2570.00,0.1081
2569.00,0.1078
2568.00,0.1076
2567.00,0.1073
2566.00,0.1072
2565.00,0.1071
2564.00,0.1070
2563.00,0.1070
2562.00,0.1070
2561.00,0.1069
2560.00,0.1069
2559.00,0.1068
2558.00,0.1066
2557.00,0.1064
2556.00,0.1063
2555.00,0.1061
2554.00,0.1060
2553.00,0.1060
2552.00,0.1061
2551.00,0.1062
2550.00,0.1064
2549.00,0.1067
2548.00,0.1072
2547.00,0.1078
2546.00,0.1086
2545.00,0.1094
2544.00,0.1104
2543.00,0.1114
2542.00,0.1124
2541.00,0.1134
2540.00,0.1144
2539.00,0.1153
2538.00,0.1160
2537.00,0.1166
2536.00,0.1171
2535.00,0.1173
2534.00,0.1174
2533.00,0.1174
2532.00,0.1173
2531.00,0.1172
2530.00,0.1169
2529.00,0.1166
2528.00,0.1162
2527.00,0.1158
2526.00,0.1155
2525.00,0.1152
2524.00,0.1150
2523.00,0.1149
2522.00,0.1147
2521.00,0.1146
2520.00,0.1145
2519.00,0.1144
2518.00,0.1144
2517.00,0.1144
2516.00,0.1143
2515.00,0.1142
2514.00,0.1140
2513.00,0.1138
2512.00,0.1135
2511.00,0.1131
2510.00,0.1127
2509.00,0.1123
2508.00,0.1119
2507.00,0.1115
2506.00,0.1109
2505.00,0.1103
2504.00,0.1097
2503.00,0.1090
2502.00,0.1084
2501.00,0.1078
2500.00,0.1072
2499.00,0.1066
2498.00,0.1059
2497.00,0.1051
2496.00,0.1044
2495.00,0.1038
2494.00,0.1031
2493.00,0.1024
2492.00,0.1018
2491.00,0.1012
2490.00,0.1006
2489.00,0.1000
2488.00,0.0994
2487.00,0.0989
2486.00,0.0984
2485.00,0.0980
2484.00,0.0975
2483.00,0.0971
2482.00,0.0966
2481.00,0.0962
2480.00,0.0957
2479.00,0.0953
2478.00,0.0949
2477.00,0.0944
2476.00,0.0940
2475.00,0.0935
2474.00,0.0930
2473.00,0.0925
2472.00,0.0920
2471.00,0.0915
2470.00,0.0910
2469.00,0.0905
2468.00,0.0901
2467.00,0.0896
2466.00,0.0892
2465.00,0.0888
2464.00,0.0884
2463.00,0.0880
2462.00,0.0875
2461.00,0.0871
2460.00,0.0866
2459.00,0.0862
2458.00,0.0859
2457.00,0.0855
2456.00,0.0852
2455.00,0.0848
2454.00,0.0844
2453.00,0.0841
2452.00,0.0838
2451.00,0.0834
2450.00,0.0831
2449.00,0.0827
2448.00,0.0824
2447.00,0.0820
2446.00,0.0817
2445.00,0.0814
2444.00,0.0812
2443.00,0.0809
2442.00,0.0807
2441.00,0.0804
2440.00,0.0801
2439.00,0.0799
2438.00,0.0796
2437.00,0.0794
2436.00,0.0791
2435.00,0.0789
2434.00,0.0786
2433.00,0.0783
2432.00,0.0781
2431.00,0.0778
2430.00,0.0776
2429.00,0.0773
2428.00,0.0771
2427.00,0.0769
2426.00,0.0768
2425.00,0.0767
2424.00,0.0766
2423.00,0.0765
2422.00,0.0764
2421.00,0.0762
2420.00,0.0760
2419.00,0.0757
2418.00,0.0755
2417.00,0.0752
2416.00,0.0749
2415.00,0.0747
2414.00,0.0745
2413.00,0.0743
2412.00,0.0741
2411.00,0.0739
2410.00,0.0737
2409.00,0.0734
2408.00,0.0732
2407.00,0.0730
2406.00,0.0728
2405.00,0.0725
2404.00,0.0723
2403.00,0.0721
2402.00,0.0718
2401.00,0.0716
2400.00,0.0715
2399.00,0.0713
2398.00,0.0712
2397.00,0.0710
2396.00,0.0709
2395.00,0.0708
2394.00,0.0706
2393.00,0.0704
2392.00,0.0703
2391.00,0.0702
2390.00,0.0700
2389.00,0.0699
2388.00,0.0698
2387.00,0.0697
2386.00,0.0695
2385.00,0.0694
2384.00,0.0692
2383.00,0.0690
2382.00,0.0687
2381.00,0.0685
2380.00,0.0683
2379.00,0.0681
2378.00,0.0679
2377.00,0.0678
2376.00,0.0677
2375.00,0.0675
2374.00,0.0674
2373.00,0.0672
2372.00,0.0671
2371.00,0.0669
2370.00,0.0667
2369.00,0.0666
2368.00,0.0664
2367.00,0.0663
2366.00,0.0662
2365.00,0.0660
2364.00,0.0659
2363.00,0.0657
2362.00,0.0656
2361.00,0.0654
2360.00,0.0653
2359.00,0.0651
2358.00,0.0650
2357.00,0.0649
2356.00,0.0649
2355.00,0.0649
2354.00,0.0648
2353.00,0.0648
2352.00,0.0646
2351.00,0.0644
2350.00,0.0641
2349.00,0.0639
2348.00,0.0636
2347.00,0.0634
2346.00,0.0632
2345.00,0.0630
2344.00,0.0627
2343.00,0.0626
2342.00,0.0624
2341.00,0.0623
2340.00,0.0624
2339.00,0.0624
2338.00,0.0624
2337.00,0.0623
2336.00,0.0621
2335.00,0.0620
2334.00,0.0619
2333.00,0.0617
2332.00,0.0616
2331.00,0.0615
2330.00,0.0614
2329.00,0.0614
2328.00,0.0615
2327.00,0.0616
2326.00,0.0617
2325.00,0.0616
2324.00,0.0614
2323.00,0.0611
2322.00,0.0607
2321.00,0.0605
2320.00,0.0602
2319.00,0.0600
2318.00,0.0598
2317.00,0.0597
2316.00,0.0596
2315.00,0.0594
2314.00,0.0592
2313.00,0.0590
2312.00,0.0587
2311.00,0.0584
2310.00,0.0582
2309.00,0.0580
2308.00,0.0580
2307.00,0.0579
2306.00,0.0578
2305.00,0.0578
2304.00,0.0577
2303.00,0.0577
2302.00,0.0575
2301.00,0.0574
2300.00,0.0573
2299.00,0.0573
2298.00,0.0572
2297.00,0.0572
2296.00,0.0573
2295.00,0.0574
2294.00,0.0574
2293.00,0.0575
2292.00,0.0576
2291.00,0.0576
2290.00,0.0576
2289.00,0.0576
2288.00,0.0575
2287.00,0.0574
2286.00,0.0571
2285.00,0.0569
2284.00,0.0566
2283.00,0.0564
2282.00,0.0561
2281.00,0.0559
2280.00,0.0556
2279.00,0.0554
2278.00,0.0552
2277.00,0.0551
2276.00,0.0550
2275.00,0.0549
2274.00,0.0547
2273.00,0.0545
2272.00,0.0545
2271.00,0.0544
2270.00,0.0544
2269.00,0.0543
2268.00,0.0543
2267.00,0.0542
2266.00,0.0541
2265.00,0.0540
2264.00,0.0539
2263.00,0.0539
2262.00,0.0539
2261.00,0.0540
2260.00,0.0541
2259.00,0.0542
2258.00,0.0542
2257.00,0.0543
2256.00,0.0544
2255.00,0.0545
2254.00,0.0546
2253.00,0.0547
2252.00,0.0548
2251.00,0.0549
2250.00,0.0549
2249.00,0.0549
2248.00,0.0548
2247.00,0.0547
2246.00,0.0547
2245.00,0.0547
2244.00,0.0547
2243.00,0.0547
2242.00,0.0546
2241.00,0.0544
2240.00,0.0541
2239.00,0.0538
2238.00,0.0535
2237.00,0.0532
2236.00,0.0529
2235.00,0.0527
2234.00,0.0525
2233.00,0.0523
2232.00,0.0522
2231.00,0.0520
2230.00,0.0517
2229.00,0.0514
2228.00,0.0513
2227.00,0.0511
2226.00,0.0510
2225.00,0.0509
2224.00,0.0507
2223.00,0.0505
2222.00,0.0501
2221.00,0.0499
2220.00,0.0497
2219.00,0.0497
2218.00,0.0495
2217.00,0.0494
2216.00,0.0493
2215.00,0.0491
2214.00,0.0489
2213.00,0.0488
2212.00,0.0487
2211.00,0.0486
2210.00,0.0485
2209.00,0.0484
2208.00,0.0484
2207.00,0.0483
2206.00,0.0481
2205.00,0.0479
2204.00,0.0479
2203.00,0.0478
2202.00,0.0477
2201.00,0.0477
2200.00,0.0478
2199.00,0.0479
2198.00,0.0480
2197.00,0.0480
2196.00,0.0480
2195.00,0.0480
2194.00,0.0480
2193.00,0.0481
2192.00,0.0482
2191.00,0.0483
2190.00,0.0482
2189.00,0.0482
2188.00,0.0483
2187.00,0.0484
2186.00,0.0484
2185.00,0.0483
2184.00,0.0481
2183.00,0.0478
2182.00,0.0474
2181.00,0.0473
2180.00,0.0474
2179.00,0.0475
2178.00,0.0474
2177.00,0.0471
2176.00,0.0469
2175.00,0.0467
2174.00,0.0466
2173.00,0.0467
2172.00,0.0469
2171.00,0.0469
2170.00,0.0468
2169.00,0.0467
2168.00,0.0465
2167.00,0.0464
2166.00,0.0463
2165.00,0.0464
2164.00,0.0466
2163.00,0.0465
2162.00,0.0458
2161.00,0.0446
2160.00,0.0432
2159.00,0.0420
2158.00,0.0413
2157.00,0.0413
2156.00,0.0417
2155.00,0.0421
2154.00,0.0423
2153.00,0.0425
2152.00,0.0425
2151.00,0.0424
2150.00,0.0423
2149.00,0.0423
2148.00,0.0424
2147.00,0.0424
2146.00,0.0423
2145.00,0.0422
2144.00,0.0421
2143.00,0.0420
2142.00,0.0419
2141.00,0.0418
2140.00,0.0418
2139.00,0.0417
2138.00,0.0415
2137.00,0.0412
2136.00,0.0410
2135.00,0.0408
2134.00,0.0407
2133.00,0.0407
2132.00,0.0408
2131.00,0.0408
2130.00,0.0408
2129.00,0.0407
2128.00,0.0408
2127.00,0.0408
2126.00,0.0408
2125.00,0.0410
2124.00,0.0411
2123.00,0.0412
2122.00,0.0412
2121.00,0.0411
2120.00,0.0411
2119.00,0.0410
2118.00,0.0410
2117.00,0.0411
2116.00,0.0412
2115.00,0.0413
2114.00,0.0412
2113.00,0.0411
2112.00,0.0410
2111.00,0.0409
2110.00,0.0407
2109.00,0.0406
2108.00,0.0406
2107.00,0.0405
2106.00,0.0404
2105.00,0.0404
2104.00,0.0403
2103.00,0.0403
2102.00,0.0401
2101.00,0.0400
2100.00,0.0399
2099.00,0.0397
2098.00,0.0395
2097.00,0.0393
2096.00,0.0392
2095.00,0.0391
2094.00,0.0391
2093.00,0.0391
2092.00,0.0393
2091.00,0.0394
2090.00,0.0394
2089.00,0.0395
2088.00,0.0395
2087.00,0.0396
2086.00,0.0395
2085.00,0.0395
2084.00,0.0396
2083.00,0.0396
2082.00,0.0395
2081.00,0.0395
2080.00,0.0395
2079.00,0.0394
2078.00,0.0393
2077.00,0.0391
2076.00,0.0390
2075.00,0.0389
2074.00,0.0387
2073.00,0.0386
2072.00,0.0385
2071.00,0.0383
2070.00,0.0381
2069.00,0.0379
2068.00,0.0378
2067.00,0.0378
2066.00,0.0376
2065.00,0.0376
2064.00,0.0375
2063.00,0.0374
2062.00,0.0373
2061.00,0.0372
2060.00,0.0372
2059.00,0.0371
2058.00,0.0368
2057.00,0.0366
2056.00,0.0365
2055.00,0.0365
2054.00,0.0366
2053.00,0.0369
2052.00,0.0372
2051.00,0.0372
2050.00,0.0368
2049.00,0.0363
2048.00,0.0359
2047.00,0.0357
2046.00,0.0355
2045.00,0.0354
2044.00,0.0354
2043.00,0.0353
2042.00,0.0351
2041.00,0.0350
2040.00,0.0351
2039.00,0.0351
2038.00,0.0350
2037.00,0.0349
2036.00,0.0350
2035.00,0.0348
2034.00,0.0345
2033.00,0.0341
2032.00,0.0337
2031.00,0.0333
2030.00,0.0327
2029.00,0.0323
2028.00,0.0322
2027.00,0.0321
2026.00,0.0319
2025.00,0.0318
2024.00,0.0319
2023.00,0.0318
2022.00,0.0314
2021.00,0.0312
2020.00,0.0312
2019.00,0.0312
2018.00,0.0310
2017.00,0.0308
2016.00,0.0308
2015.00,0.0307
2014.00,0.0306
2013.00,0.0307
2012.00,0.0311
2011.00,0.0313
2010.00,0.0314
2009.00,0.0314
2008.00,0.0315
2007.00,0.0315
2006.00,0.0316
2005.00,0.0319
2004.00,0.0323
2003.00,0.0325
2002.00,0.0324
2001.00,0.0325
2000.00,0.0327
1999.00,0.0330
1998.00,0.0330
1997.00,0.0331
1996.00,0.0334
1995.00,0.0335
1994.00,0.0336
1993.00,0.0337
1992.00,0.0340
1991.00,0.0343
1990.00,0.0344
1989.00,0.0346
1988.00,0.0350
1987.00,0.0352
1986.00,0.0352
1985.00,0.0352
1984.00,0.0354
1983.00,0.0356
1982.00,0.0356
1981.00,0.0355
1980.00,0.0354
1979.00,0.0349
1978.00,0.0342
1977.00,0.0338
1976.00,0.0337
1975.00,0.0336
1974.00,0.0334
1973.00,0.0335
1972.00,0.0337
1971.00,0.0339
1970.00,0.0338
1969.00,0.0336
1968.00,0.0337
1967.00,0.0336
1966.00,0.0335
1965.00,0.0336
1964.00,0.0338
1963.00,0.0339
1962.00,0.0339
1961.00,0.0342
1960.00,0.0349
1959.00,0.0358
1958.00,0.0366
1957.00,0.0376
1956.00,0.0384
1955.00,0.0388
1954.00,0.0388
1953.00,0.0386
1952.00,0.0385
1951.00,0.0383
1950.00,0.0380
1949.00,0.0379
1948.00,0.0380
1947.00,0.0382
1946.00,0.0382
1945.00,0.0383
1944.00,0.0385
1943.00,0.0388
1942.00,0.0390
1941.00,0.0393
1940.00,0.0395
1939.00,0.0396
1938.00,0.0395
1937.00,0.0393
1936.00,0.0393
1935.00,0.0393
1934.00,0.0393
1933.00,0.0393
1932.00,0.0395
1931.00,0.0398
1930.00,0.0400
1929.00,0.0403
1928.00,0.0407
1927.00,0.0410
1926.00,0.0413
1925.00,0.0417
1924.00,0.0423
1923.00,0.0428
1922.00,0.0431
1921.00,0.0431
1920.00,0.0430
1919.00,0.0428
1918.00,0.0425
1917.00,0.0424
1916.00,0.0424
1915.00,0.0425
1914.00,0.0426
1913.00,0.0428
1912.00,0.0431
1911.00,0.0434
1910.00,0.0436
1909.00,0.0438
1908.00,0.0440
1907.00,0.0439
1906.00,0.0437
1905.00,0.0434
1904.00,0.0432
1903.00,0.0430
1902.00,0.0428
1901.00,0.0426
1900.00,0.0426
1899.00,0.0425
1898.00,0.0424
1897.00,0.0425
1896.00,0.0427
1895.00,0.0429
1894.00,0.0430
1893.00,0.0431
1892.00,0.0432
1891.00,0.0434
1890.00,0.0434
1889.00,0.0436
1888.00,0.0438
1887.00,0.0440
1886.00,0.0441
1885.00,0.0443
1884.00,0.0443
1883.00,0.0443
1882.00,0.0440
1881.00,0.0438
1880.00,0.0435
1879.00,0.0432
1878.00,0.0428
1877.00,0.0423
1876.00,0.0420
1875.00,0.0417
1874.00,0.0413
1873.00,0.0410
1872.00,0.0408
1871.00,0.0405
1870.00,0.0401
1869.00,0.0399
1868.00,0.0399
1867.00,0.0399
1866.00,0.0399
1865.00,0.0400
1864.00,0.0401
1863.00,0.0402
1862.00,0.0403
1861.00,0.0405
1860.00,0.0407
1859.00,0.0410
1858.00,0.0411
1857.00,0.0413
1856.00,0.0414
1855.00,0.0414
1854.00,0.0413
1853.00,0.0412
1852.00,0.0413
1851.00,0.0413
1850.00,0.0412
1849.00,0.0413
1848.00,0.0414
1847.00,0.0415
1846.00,0.0413
1845.00,0.0412
1844.00,0.0412
1843.00,0.0412
1842.00,0.0413
1841.00,0.0413
1840.00,0.0414
1839.00,0.0413
1838.00,0.0411
1837.00,0.0410
1836.00,0.0410
1835.00,0.0410
1834.00,0.0408
1833.00,0.0406
1832.00,0.0405
1831.00,0.0403
1830.00,0.0401
1829.00,0.0401
1828.00,0.0403
1827.00,0.0406
1826.00,0.0408
1825.00,0.0411
1824.00,0.0415
1823.00,0.0418
1822.00,0.0420
1821.00,0.0423
1820.00,0.0426
1819.00,0.0428
1818.00,0.0430
1817.00,0.0432
1816.00,0.0435
1815.00,0.0436
1814.00,0.0435
1813.00,0.0434
1812.00,0.0434
1811.00,0.0433
1810.00,0.0433
1809.00,0.0432
1808.00,0.0433
1807.00,0.0434
1806.00,0.0433
1805.00,0.0433
1804.00,0.0433
1803.00,0.0433
1802.00,0.0432
1801.00,0.0431
1800.00,0.0431
1799.00,0.0431
1798.00,0.0430
1797.00,0.0431
1796.00,0.0432
1795.00,0.0432
1794.00,0.0430
1793.00,0.0429
1792.00,0.0430
1791.00,0.0433
1790.00,0.0436
1789.00,0.0440
1788.00,0.0445
1787.00,0.0448
1786.00,0.0450
1785.00,0.0452
1784.00,0.0453
1783.00,0.0453
1782.00,0.0451
1781.00,0.0450
1780.00,0.0450
1779.00,0.0449
1778.00,0.0448
1777.00,0.0447
1776.00,0.0447
1775.00,0.0445
1774.00,0.0441
1773.00,0.0437
1772.00,0.0437
1771.00,0.0439
1770.00,0.0442
1769.00,0.0447
1768.00,0.0453
1767.00,0.0457
1766.00,0.0460
1765.00,0.0462
1764.00,0.0465
1763.00,0.0467
1762.00,0.0469
1761.00,0.0473
1760.00,0.0477
1759.00,0.0483
1758.00,0.0487
1757.00,0.0493
1756.00,0.0500
1755.00,0.0507
1754.00,0.0512
1753.00,0.0517
1752.00,0.0525
1751.00,0.0533
1750.00,0.0542
1749.00,0.0553
1748.00,0.0566
1747.00,0.0579
1746.00,0.0591
1745.00,0.0603
1744.00,0.0615
1743.00,0.0627
1742.00,0.0636
1741.00,0.0646
1740.00,0.0661
1739.00,0.0677
1738.00,0.0691
1737.00,0.0703
1736.00,0.0714
1735.00,0.0727
1734.00,0.0746
1733.00,0.0772
1732.00,0.0804
1731.00,0.0838
1730.00,0.0876
1729.00,0.0919
1728.00,0.0967
1727.00,0.1018
1726.00,0.1073
1725.00,0.1137
1724.00,0.1212
1723.00,0.1292
1722.00,0.1374
1721.00,0.1457
1720.00,0.1547
1719.00,0.1652
1718.00,0.1780
1717.00,0.1925
1716.00,0.2072
1715.00,0.2214
1714.00,0.2351
1713.00,0.2483
1712.00,0.2608
1711.00,0.2726
1710.00,0.2836
1709.00,0.2934
1708.00,0.3018
1707.00,0.3089
1706.00,0.3147
1705.00,0.3188
1704.00,0.3206
1703.00,0.3204
1702.00,0.3187
1701.00,0.3163
1700.00,0.3141
1699.00,0.3126
1698.00,0.3116
1697.00,0.3111
1696.00,0.3114
1695.00,0.3127
1694.00,0.3143
1693.00,0.3159
1692.00,0.3176
1691.00,0.3196
1690.00,0.3221
1689.00,0.3246
1688.00,0.3267
1687.00,0.3284
1686.00,0.3302
1685.00,0.3335
1684.00,0.3383
1683.00,0.3430
1682.00,0.3463
1681.00,0.3488
1680.00,0.3510
1679.00,0.3529
1678.00,0.3542
1677.00,0.3552
1676.00,0.3569
1675.00,0.3591
1674.00,0.3610
1673.00,0.3620
1672.00,0.3624
1671.00,0.3632
1670.00,0.3645
1669.00,0.3659
1668.00,0.3670
1667.00,0.3675
1666.00,0.3672
1665.00,0.3665
1664.00,0.3655
1663.00,0.3647
1662.00,0.3636
1661.00,0.3617
1660.00,0.3593
1659.00,0.3563
1658.00,0.3528
1657.00,0.3486
1656.00,0.3438
1655.00,0.3385
1654.00,0.3332
1653.00,0.3282
1652.00,0.3239
1651.00,0.3205
1650.00,0.3175
1649.00,0.3143
1648.00,0.3110
1647.00,0.3079
1646.00,0.3052
1645.00,0.3027
1644.00,0.3006
1643.00,0.2986
1642.00,0.2965
1641.00,0.2941
1640.00,0.2915
1639.00,0.2887
1638.00,0.2857
1637.00,0.2825
1636.00,0.2791
1635.00,0.2760
1634.00,0.2728
1633.00,0.2697
1632.00,0.2664
1631.00,0.2629
1630.00,0.2590
1629.00,0.2547
1628.00,0.2504
1627.00,0.2462
1626.00,0.2421
1625.00,0.2381
1624.00,0.2340
1623.00,0.2302
1622.00,0.2266
1621.00,0.2232
1620.00,0.2199
1619.00,0.2166
1618.00,0.2132
1617.00,0.2100
1616.00,0.2071
1615.00,0.2049
1614.00,0.2030
1613.00,0.2011
1612.00,0.1990
1611.00,0.1970
1610.00,0.1949
1609.00,0.1928
1608.00,0.1909
1607.00,0.1890
1606.00,0.1873
1605.00,0.1855
1604.00,0.1837
1603.00,0.1821
1602.00,0.1808
1601.00,0.1796
1600.00,0.1788
1599.00,0.1783
1598.00,0.1783
1597.00,0.1793
1596.00,0.1825
1595.00,0.1881
1594.00,0.1939
1593.00,0.1967
1592.00,0.1949
1591.00,0.1901
1590.00,0.1848
1589.00,0.1809
1588.00,0.1783
1587.00,0.1763
1586.00,0.1744
1585.00,0.1723
1584.00,0.1702
1583.00,0.1681
1582.00,0.1661
1581.00,0.1641
1580.00,0.1620
1579.00,0.1597
1578.00,0.1574
1577.00,0.1551
1576.00,0.1532
1575.00,0.1520
1574.00,0.1512
1573.00,0.1506
1572.00,0.1499
1571.00,0.1492
1570.00,0.1486
1569.00,0.1480
1568.00,0.1473
1567.00,0.1465
1566.00,0.1455
1565.00,0.1442
1564.00,0.1427
1563.00,0.1410
1562.00,0.1389
1561.00,0.1363
1560.00,0.1335
1559.00,0.1310
1558.00,0.1291
1557.00,0.1277
1556.00,0.1268
1555.00,0.1258
1554.00,0.1246
1553.00,0.1230
1552.00,0.1214
1551.00,0.1199
1550.00,0.1184
1549.00,0.1168
1548.00,0.1152
1547.00,0.1135
1546.00,0.1119
1545.00,0.1102
1544.00,0.1084
1543.00,0.1065
1542.00,0.1045
1541.00,0.1025
1540.00,0.1010
1539.00,0.1002
1538.00,0.1000
1537.00,0.1000
1536.00,0.0999
1535.00,0.0994
1534.00,0.0987
1533.00,0.0980
1532.00,0.0974
1531.00,0.0968
1530.00,0.0962
1529.00,0.0955
1528.00,0.0947
1527.00,0.0938
1526.00,0.0930
1525.00,0.0923
1524.00,0.0918
1523.00,0.0917
1522.00,0.0921
1521.00,0.0924
1520.00,0.0921
1519.00,0.0913
1518.00,0.0903
1517.00,0.0890
1516.00,0.0878
1515.00,0.0869
1514.00,0.0870
1513.00,0.0882
1512.00,0.0903
1511.00,0.0922
1510.00,0.0930
1509.00,0.0926
1508.00,0.0922
1507.00,0.0941
1506.00,0.0984
1505.00,0.1021
1504.00,0.1033
1503.00,0.1020
1502.00,0.0989
1501.00,0.0950
1500.00,0.0910
1499.00,0.0872
1498.00,0.0837
1497.00,0.0805
1496.00,0.0778
1495.00,0.0758
1494.00,0.0742
1493.00,0.0729
1492.00,0.0714
1491.00,0.0699
1490.00,0.0684
1489.00,0.0670
1488.00,0.0658
1487.00,0.0648
1486.00,0.0640
1485.00,0.0634
1484.00,0.0629
1483.00,0.0625
1482.00,0.0621
1481.00,0.0620
1480.00,0.0619
1479.00,0.0620
1478.00,0.0622
1477.00,0.0625
1476.00,0.0630
1475.00,0.0637
1474.00,0.0649
1473.00,0.0672
1472.00,0.0706
1471.00,0.0745
1470.00,0.0782
1469.00,0.0812
1468.00,0.0834
1467.00,0.0846
1466.00,0.0848
1465.00,0.0845
1464.00,0.0842
1463.00,0.0841
1462.00,0.0843
1461.00,0.0845
1460.00,0.0847
1459.00,0.0846
1458.00,0.0842
1457.00,0.0838
1456.00,0.0834
1455.00,0.0833
1454.00,0.0834
1453.00,0.0837
1452.00,0.0843
1451.00,0.0851
1450.00,0.0865
1449.00,0.0888
1448.00,0.0920
1447.00,0.0960
1446.00,0.1006
1445.00,0.1056
1444.00,0.1110
1443.00,0.1168
1442.00,0.1231
1441.00,0.1300
1440.00,0.1373
1439.00,0.1453
1438.00,0.1550
1437.00,0.1675
1436.00,0.1819
1435.00,0.1960
1434.00,0.2092
1433.00,0.2224
1432.00,0.2360
1431.00,0.2496
1430.00,0.2625
1429.00,0.2743
1428.00,0.2842
1427.00,0.2916
1426.00,0.2969
1425.00,0.3008
1424.00,0.3030
1423.00,0.3031
1422.00,0.3015
1421.00,0.2990
1420.00,0.2960
1419.00,0.2926
1418.00,0.2894
1417.00,0.2871
1416.00,0.2856
1415.00,0.2842
1414.00,0.2831
1413.00,0.2822
1412.00,0.2809
1411.00,0.2784
1410.00,0.2747
1409.00,0.2699
1408.00,0.2639
1407.00,0.2568
1406.00,0.2489
1405.00,0.2406
1404.00,0.2324
1403.00,0.2243
1402.00,0.2167
1401.00,0.2095
1400.00,0.2025
1399.00,0.1957
1398.00,0.1894
1397.00,0.1837
1396.00,0.1785
1395.00,0.1737
1394.00,0.1706
1393.00,0.1703
1392.00,0.1730
1391.00,0.1769
1390.00,0.1791
1389.00,0.1774
1388.00,0.1720
1387.00,0.1653
1386.00,0.1595
1385.00,0.1550
1384.00,0.1508
1383.00,0.1467
1382.00,0.1428
1381.00,0.1394
1380.00,0.1363
1379.00,0.1332
1378.00,0.1301
1377.00,0.1268
1376.00,0.1232
1375.00,0.1197
1374.00,0.1165
1373.00,0.1136
1372.00,0.1112
1371.00,0.1090
1370.00,0.1072
1369.00,0.1056
1368.00,0.1040
1367.00,0.1024
1366.00,0.1011
1365.00,0.1003
1364.00,0.0998
1363.00,0.0995
1362.00,0.0988
1361.00,0.0974
1360.00,0.0953
1359.00,0.0930
1358.00,0.0910
1357.00,0.0895
1356.00,0.0882
1355.00,0.0871
1354.00,0.0863
1353.00,0.0855
1352.00,0.0848
1351.00,0.0840
1350.00,0.0833
1349.00,0.0826
1348.00,0.0818
1347.00,0.0810
1346.00,0.0803
1345.00,0.0796
1344.00,0.0790
1343.00,0.0785
1342.00,0.0780
1341.00,0.0777
1340.00,0.0773
1339.00,0.0770
1338.00,0.0769
1337.00,0.0769
1336.00,0.0772
1335.00,0.0778
1334.00,0.0789
1333.00,0.0806
1332.00,0.0830
1331.00,0.0863
1330.00,0.0905
1329.00,0.0957
1328.00,0.1020
1327.00,0.1093
1326.00,0.1174
1325.00,0.1260
1324.00,0.1346
1323.00,0.1425
1322.00,0.1492
1321.00,0.1542
1320.00,0.1572
1319.00,0.1581
1318.00,0.1573
1317.00,0.1552
1316.00,0.1523
1315.00,0.1489
1314.00,0.1455
1313.00,0.1421
1312.00,0.1388
1311.00,0.1354
1310.00,0.1321
1309.00,0.1288
1308.00,0.1255
1307.00,0.1222
1306.00,0.1191
1305.00,0.1164
1304.00,0.1142
1303.00,0.1127
1302.00,0.1120
1301.00,0.1123
1300.00,0.1135
1299.00,0.1156
1298.00,0.1186
1297.00,0.1224
1296.00,0.1267
1295.00,0.1314
1294.00,0.1366
1293.00,0.1423
1292.00,0.1486
1291.00,0.1557
1290.00,0.1639
1289.00,0.1735
1288.00,0.1847
1287.00,0.1975
1286.00,0.2121
1285.00,0.2282
1284.00,0.2455
1283.00,0.2638
1282.00,0.2826
1281.00,0.3017
1280.00,0.3209
1279.00,0.3399
1278.00,0.3585
1277.00,0.3768
1276.00,0.3943
1275.00,0.4102
1274.00,0.4227
1273.00,0.4298
1272.00,0.4301
1271.00,0.4240
1270.00,0.4133
1269.00,0.3998
1268.00,0.3851
1267.00,0.3697
1266.00,0.3542
1265.00,0.3390
1264.00,0.3243
1263.00,0.3100
1262.00,0.2960
1261.00,0.2823
1260.00,0.2688
1259.00,0.2555
1258.00,0.2426
1257.00,0.2304
1256.00,0.2190
1255.00,0.2083
1254.00,0.1985
1253.00,0.1899
1252.00,0.1824
1251.00,0.1763
1250.00,0.1718
1249.00,0.1689
1248.00,0.1675
1247.00,0.1679
1246.00,0.1698
1245.00,0.1733
1244.00,0.1783
1243.00,0.1850
1242.00,0.1937
1241.00,0.2047
1240.00,0.2180
1239.00,0.2331
1238.00,0.2497
1237.00,0.2671
1236.00,0.2843
1235.00,0.3007
1234.00,0.3154
1233.00,0.3280
1232.00,0.3377
1231.00,0.3444
1230.00,0.3479
1229.00,0.3486
1228.00,0.3469
1227.00,0.3432
1226.00,0.3381
1225.00,0.3323
1224.00,0.3261
1223.00,0.3197
1222.00,0.3134
1221.00,0.3080
1220.00,0.3041
1219.00,0.3024
1218.00,0.3036
1217.00,0.3076
1216.00,0.3138
1215.00,0.3207
1214.00,0.3272
1213.00,0.3320
1212.00,0.3341
1211.00,0.3329
1210.00,0.3282
1209.00,0.3207
1208.00,0.3114
1207.00,0.3015
1206.00,0.2920
1205.00,0.2833
1204.00,0.2757
1203.00,0.2691
1202.00,0.2634
1201.00,0.2585
1200.00,0.2544
1199.00,0.2508
1198.00,0.2476
1197.00,0.2448
1196.00,0.2424
1195.00,0.2403
1194.00,0.2382
1193.00,0.2360
1192.00,0.2333
1191.00,0.2302
1190.00,0.2267
1189.00,0.2230
1188.00,0.2193
1187.00,0.2156
1186.00,0.2120
1185.00,0.2086
1184.00,0.2054
1183.00,0.2023
1182.00,0.1996
1181.00,0.1971
1180.00,0.1949
1179.00,0.1929
1178.00,0.1911
1177.00,0.1894
1176.00,0.1877
1175.00,0.1857
1174.00,0.1836
1173.00,0.1816
1172.00,0.1796
1171.00,0.1777
1170.00,0.1760
1169.00,0.1743
1168.00,0.1728
1167.00,0.1713
1166.00,0.1698
1165.00,0.1683
1164.00,0.1668
1163.00,0.1653
1162.00,0.1638
1161.00,0.1623
1160.00,0.1608
1159.00,0.1592
1158.00,0.1576
1157.00,0.1560
1156.00,0.1543
1155.00,0.1526
1154.00,0.1509
1153.00,0.1492
1152.00,0.1475
1151.00,0.1457
1150.00,0.1441
1149.00,0.1424
1148.00,0.1409
1147.00,0.1395
1146.00,0.1385
1145.00,0.1381
1144.00,0.1385
1143.00,0.1394
1142.00,0.1397
1141.00,0.1387
1140.00,0.1366
1139.00,0.1340
1138.00,0.1316
1137.00,0.1297
1136.00,0.1280
1135.00,0.1264
1134.00,0.1252
1133.00,0.1245
1132.00,0.1251
1131.00,0.1275
1130.00,0.1322
1129.00,0.1383
1128.00,0.1435
1127.00,0.1463
1126.00,0.1473
1125.00,0.1483
1124.00,0.1501
1123.00,0.1514
1122.00,0.1506
1121.00,0.1475
1120.00,0.1433
1119.00,0.1395
1118.00,0.1368
1117.00,0.1349
1116.00,0.1334
1115.00,0.1322
1114.00,0.1312
1113.00,0.1303
1112.00,0.1293
1111.00,0.1283
1110.00,0.1273
1109.00,0.1263
1108.00,0.1252
1107.00,0.1241
1106.00,0.1230
1105.00,0.1218
1104.00,0.1207
1103.00,0.1196
1102.00,0.1186
1101.00,0.1176
1100.00,0.1168
1099.00,0.1159
1098.00,0.1152
1097.00,0.1145
1096.00,0.1138
1095.00,0.1132
1094.00,0.1127
1093.00,0.1121
1092.00,0.1117
1091.00,0.1113
1090.00,0.1110
1089.00,0.1106
1088.00,0.1102
1087.00,0.1096
1086.00,0.1089
1085.00,0.1083
1084.00,0.1078
1083.00,0.1072
1082.00,0.1068
1081.00,0.1065
1080.00,0.1062
1079.00,0.1059
1078.00,0.1056
1077.00,0.1055
1076.00,0.1053
1075.00,0.1051
1074.00,0.1050
1073.00,0.1048
1072.00,0.1047
1071.00,0.1045
1070.00,0.1044
1069.00,0.1043
1068.00,0.1042
1067.00,0.1041
1066.00,0.1040
1065.00,0.1039
1064.00,0.1038
1063.00,0.1037
1062.00,0.1036
1061.00,0.1036
1060.00,0.1035
1059.00,0.1034
1058.00,0.1033
1057.00,0.1031
1056.00,0.1029
1055.00,0.1027
1054.00,0.1024
1053.00,0.1022
1052.00,0.1020
1051.00,0.1018
1050.00,0.1016
1049.00,0.1014
1048.00,0.1012
1047.00,0.1010
1046.00,0.1008
1045.00,0.1006
1044.00,0.1003
1043.00,0.1001
1042.00,0.0999
1041.00,0.0997
1040.00,0.0996
1039.00,0.0995
1038.00,0.0994
1037.00,0.0993
1036.00,0.0992
1035.00,0.0991
1034.00,0.0991
1033.00,0.0991
1032.00,0.0991
1031.00,0.0992
1030.00,0.0994
1029.00,0.0997
1028.00,0.1001
1027.00,0.1006
1026.00,0.1014
1025.00,0.1024
1024.00,0.1037
1023.00,0.1052
1022.00,0.1072
1021.00,0.1099
1020.00,0.1137
1019.00,0.1193
1018.00,0.1273
1017.00,0.1385
1016.00,0.1525
1015.00,0.1687
1014.00,0.1858
1013.00,0.2024
1012.00,0.2170
1011.00,0.2290
1010.00,0.2390
1009.00,0.2477
1008.00,0.2541
1007.00,0.2562
1006.00,0.2533
1005.00,0.2473
1004.00,0.2419
1003.00,0.2393
1002.00,0.2397
1001.00,0.2412
1000.00,0.2415
999.00,0.2393
998.00,0.2340
997.00,0.2263
996.00,0.2167
995.00,0.2063
994.00,0.1958
993.00,0.1858
992.00,0.1770
991.00,0.1694
990.00,0.1630
989.00,0.1578
988.00,0.1535
987.00,0.1501
986.00,0.1474
985.00,0.1453
984.00,0.1441
983.00,0.1437
982.00,0.1442
981.00,0.1449
980.00,0.1452
979.00,0.1449
978.00,0.1442
977.00,0.1436
976.00,0.1436
975.00,0.1441
974.00,0.1452
973.00,0.1467
972.00,0.1485
971.00,0.1502
970.00,0.1518
969.00,0.1530
968.00,0.1540
967.00,0.1551
966.00,0.1566
965.00,0.1591
964.00,0.1628
963.00,0.1685
962.00,0.1762
961.00,0.1851
960.00,0.1938
959.00,0.2001
958.00,0.2028
957.00,0.2025
956.00,0.2006
955.00,0.1987
954.00,0.1978
953.00,0.1979
952.00,0.1984
951.00,0.1992
950.00,0.2000
949.00,0.2008
948.00,0.2016
947.00,0.2023
946.00,0.2032
945.00,0.2043
944.00,0.2057
943.00,0.2077
942.00,0.2103
941.00,0.2138
940.00,0.2181
939.00,0.2233
938.00,0.2294
937.00,0.2363
936.00,0.2436
935.00,0.2511
934.00,0.2585
933.00,0.2652
932.00,0.2712
931.00,0.2761
930.00,0.2799
929.00,0.2830
928.00,0.2854
927.00,0.2875
926.00,0.2895
925.00,0.2914
924.00,0.2935
923.00,0.2957
922.00,0.2979
921.00,0.3003
920.00,0.3028
919.00,0.3053
918.00,0.3075
917.00,0.3092
916.00,0.3098
915.00,0.3094
914.00,0.3084
913.00,0.3075
912.00,0.3076
911.00,0.3091
910.00,0.3119
909.00,0.3156
908.00,0.3199
907.00,0.3243
906.00,0.3286
905.00,0.3326
904.00,0.3363
903.00,0.3395
902.00,0.3422
901.00,0.3444
900.00,0.3461
899.00,0.3473
898.00,0.3480
897.00,0.3483
896.00,0.3483
895.00,0.3479
894.00,0.3471
893.00,0.3461
892.00,0.3448
891.00,0.3432
890.00,0.3413
889.00,0.3390
888.00,0.3365
887.00,0.3338
886.00,0.3310
885.00,0.3280
884.00,0.3250
883.00,0.3221
882.00,0.3195
881.00,0.3177
880.00,0.3165
879.00,0.3159
878.00,0.3158
877.00,0.3159
876.00,0.3158
875.00,0.3156
874.00,0.3149
873.00,0.3139
872.00,0.3127
871.00,0.3113
870.00,0.3100
869.00,0.3087
868.00,0.3078
867.00,0.3073
866.00,0.3074
865.00,0.3080
864.00,0.3085
863.00,0.3085
862.00,0.3077
861.00,0.3062
860.00,0.3039
859.00,0.3014
858.00,0.2987
857.00,0.2959
856.00,0.2933
855.00,0.2907
854.00,0.2881
853.00,0.2854
852.00,0.2827
851.00,0.2801
850.00,0.2775
849.00,0.2754
848.00,0.2746
847.00,0.2757
846.00,0.2781
845.00,0.2795
844.00,0.2779
843.00,0.2729
842.00,0.2662
841.00,0.2599
840.00,0.2547
839.00,0.2504
838.00,0.2466
837.00,0.2432
836.00,0.2403
835.00,0.2375
834.00,0.2348
833.00,0.2322
832.00,0.2298
831.00,0.2274
830.00,0.2250
829.00,0.2226
828.00,0.2204
827.00,0.2183
826.00,0.2165
825.00,0.2151
824.00,0.2137
823.00,0.2123
822.00,0.2104
821.00,0.2082
820.00,0.2057
819.00,0.2029
818.00,0.1999
817.00,0.1970
816.00,0.1940
815.00,0.1912
814.00,0.1884
813.00,0.1858
812.00,0.1835
811.00,0.1812
810.00,0.1790
809.00,0.1769
808.00,0.1750
807.00,0.1731
806.00,0.1712
805.00,0.1694
804.00,0.1676
803.00,0.1659
802.00,0.1647
801.00,0.1646
800.00,0.1662
799.00,0.1689
798.00,0.1715
797.00,0.1727
796.00,0.1729
795.00,0.1748
794.00,0.1817
793.00,0.1954
792.00,0.2152
791.00,0.2377
790.00,0.2590
789.00,0.2778
788.00,0.2956
787.00,0.3156
786.00,0.3397
785.00,0.3672
784.00,0.3948
783.00,0.4189
782.00,0.4365
781.00,0.4456
780.00,0.4452
779.00,0.4341
778.00,0.4125
777.00,0.3832
776.00,0.3517
775.00,0.3229
774.00,0.2996
773.00,0.2819
772.00,0.2686
771.00,0.2584
770.00,0.2500
769.00,0.2426
768.00,0.2358
767.00,0.2294
766.00,0.2232
765.00,0.2174
764.00,0.2119
763.00,0.2068
762.00,0.2022
761.00,0.1979
760.00,0.1938
759.00,0.1898
758.00,0.1859
757.00,0.1821
756.00,0.1785
755.00,0.1753
754.00,0.1726
753.00,0.1703
752.00,0.1684
751.00,0.1667
750.00,0.1650
749.00,0.1631
748.00,0.1608
747.00,0.1580
746.00,0.1550
745.00,0.1519
744.00,0.1489
743.00,0.1462
742.00,0.1439
741.00,0.1418
740.00,0.1398
739.00,0.1381
738.00,0.1366
737.00,0.1354
736.00,0.1344
735.00,0.1338
734.00,0.1334
733.00,0.1334
732.00,0.1338
731.00,0.1345
730.00,0.1355
729.00,0.1369
728.00,0.1387
727.00,0.1410
726.00,0.1438
725.00,0.1468
724.00,0.1493
723.00,0.1508
722.00,0.1509
721.00,0.1493
720.00,0.1463
719.00,0.1425
718.00,0.1383
717.00,0.1341
716.00,0.1300
715.00,0.1261
714.00,0.1224
713.00,0.1189
712.00,0.1156
711.00,0.1125
710.00,0.1096
709.00,0.1069
708.00,0.1045
707.00,0.1023
706.00,0.1002
705.00,0.0983
704.00,0.0966
703.00,0.0951
702.00,0.0938
701.00,0.0927
700.00,0.0916
699.00,0.0907
698.00,0.0898
697.00,0.0890
696.00,0.0882
695.00,0.0873
694.00,0.0864
693.00,0.0855
692.00,0.0846
691.00,0.0837
690.00,0.0829
689.00,0.0822
688.00,0.0817
687.00,0.0811
686.00,0.0806
685.00,0.0801
684.00,0.0795
683.00,0.0788
682.00,0.0783
681.00,0.0778
680.00,0.0772
679.00,0.0767
678.00,0.0762
677.00,0.0757
676.00,0.0751
675.00,0.0745
674.00,0.0739
673.00,0.0732
672.00,0.0725
671.00,0.0718
670.00,0.0712
669.00,0.0708
668.00,0.0708
667.00,0.0710
666.00,0.0709
665.00,0.0706
664.00,0.0706
663.00,0.0711
662.00,0.0721
661.00,0.0737
660.00,0.0759
659.00,0.0791
658.00,0.0836
657.00,0.0899
656.00,0.0991
655.00,0.1122
654.00,0.1306
653.00,0.1549
652.00,0.1856
651.00,0.2217
650.00,0.2609
649.00,0.3011
648.00,0.3391
647.00,0.3709
646.00,0.3924
645.00,0.4021
644.00,0.4013
643.00,0.3918
642.00,0.3764
641.00,0.3583
640.00,0.3397
639.00,0.3213
638.00,0.3034
637.00,0.2867
636.00,0.2714
635.00,0.2572
634.00,0.2436
633.00,0.2304
632.00,0.2179
631.00,0.2060
630.00,0.1945
629.00,0.1837
628.00,0.1739
627.00,0.1652
626.00,0.1576
625.00,0.1513
624.00,0.1460
623.00,0.1413
622.00,0.1374
621.00,0.1362
620.00,0.1402
619.00,0.1493
618.00,0.1591
617.00,0.1634
616.00,0.1599
615.00,0.1517
614.00,0.1436
613.00,0.1375
612.00,0.1333
611.00,0.1299
610.00,0.1272
609.00,0.1253
608.00,0.1237
607.00,0.1222
606.00,0.1208
605.00,0.1194
604.00,0.1181
603.00,0.1167
602.00,0.1155
601.00,0.1147
600.00,0.1143
599.00,0.1145
598.00,0.1154
597.00,0.1170
596.00,0.1195
595.00,0.1227
594.00,0.1268
593.00,0.1320
592.00,0.1386
591.00,0.1470
590.00,0.1578
589.00,0.1713
588.00,0.1878
587.00,0.2072
586.00,0.2293
585.00,0.2534
584.00,0.2780
583.00,0.3014
582.00,0.3219
581.00,0.3382
580.00,0.3495
579.00,0.3552
578.00,0.3557
577.00,0.3522
576.00,0.3458
575.00,0.3372
574.00,0.3271
573.00,0.3164
572.00,0.3056
571.00,0.2947
570.00,0.2841
569.00,0.2740
568.00,0.2646
567.00,0.2558
566.00,0.2474
565.00,0.2396
564.00,0.2323
563.00,0.2251
562.00,0.2181
561.00,0.2117
560.00,0.2058
559.00,0.2001
558.00,0.1944
557.00,0.1888
556.00,0.1836
555.00,0.1785
554.00,0.1738
553.00,0.1696
552.00,0.1656
551.00,0.1619
550.00,0.1584
549.00,0.1552
548.00,0.1522
547.00,0.1496
546.00,0.1471
545.00,0.1446
544.00,0.1422
543.00,0.1399
542.00,0.1377
541.00,0.1357
540.00,0.1338
539.00,0.1318
538.00,0.1299
537.00,0.1281
536.00,0.1264
535.00,0.1248
534.00,0.1231
533.00,0.1216
532.00,0.1200
531.00,0.1185
530.00,0.1171
529.00,0.1157
528.00,0.1144
527.00,0.1130
526.00,0.1117
525.00,0.1103
524.00,0.1089
523.00,0.1075
522.00,0.1064
521.00,0.1054
520.00,0.1046
519.00,0.1037
518.00,0.1030
517.00,0.1022
516.00,0.1013
515.00,0.1003
514.00,0.0995
513.00,0.0990
512.00,0.0985
511.00,0.0979
510.00,0.0973
509.00,0.0967
508.00,0.0962
507.00,0.0958
506.00,0.0955
505.00,0.0953
504.00,0.0950
503.00,0.0947
502.00,0.0944
501.00,0.0941
500.00,0.0937
499.00,0.0933
498.00,0.0930
497.00,0.0929
496.00,0.0928
495.00,0.0928
494.00,0.0930
493.00,0.0933
492.00,0.0936
491.00,0.0942
490.00,0.0953
489.00,0.0978
488.00,0.1025
487.00,0.1105
486.00,0.1237
485.00,0.1431
484.00,0.1679
483.00,0.1941
482.00,0.2158
481.00,0.2287
480.00,0.2334
479.00,0.2337
478.00,0.2324
477.00,0.2292
476.00,0.2234
475.00,0.2167
474.00,0.2126
473.00,0.2123
472.00,0.2118
471.00,0.2060
470.00,0.1945
469.00,0.1815
468.00,0.1708
467.00,0.1636
466.00,0.1591
465.00,0.1566
464.00,0.1551
463.00,0.1542
462.00,0.1536
461.00,0.1534
460.00,0.1535
459.00,0.1539
458.00,0.1549
457.00,0.1567
456.00,0.1592
455.00,0.1619
454.00,0.1645
453.00,0.1671
452.00,0.1699
451.00,0.1725
450.00,0.1748
449.00,0.1768
448.00,0.1785
447.00,0.1795
446.00,0.1794
445.00,0.1783
444.00,0.1762
443.00,0.1730
442.00,0.1691
441.00,0.1653
440.00,0.1620
439.00,0.1592
438.00,0.1563
437.00,0.1532
436.00,0.1497
435.00,0.1458
434.00,0.1418
433.00,0.1379
432.00,0.1342
431.00,0.1307
430.00,0.1276
429.00,0.1250
428.00,0.1227
427.00,0.1204
426.00,0.1182
425.00,0.1159
424.00,0.1137
423.00,0.1115
422.00,0.1098
421.00,0.1087
420.00,0.1080
419.00,0.1072
418.00,0.1060
417.00,0.1048
416.00,0.1039
415.00,0.1035
414.00,0.1040
413.00,0.1051
412.00,0.1061
411.00,0.1067
410.00,0.1069
409.00,0.1073
408.00,0.1079
407.00,0.1086
406.00,0.1091
405.00,0.1090
404.00,0.1082
403.00,0.1069
402.00,0.1054
401.00,0.1036
400.00,0.1013
