Created as New Dataset,Sample 851 By YargerLab Date Saturday, April 18 2026
cm-1,A
4000.00,0.0044
3999.00,0.0044
3998.00,0.0044
3997.00,0.0044
3996.00,0.0044
3995.00,0.0044
3994.00,0.0044
3993.00,0.0044
3992.00,0.0043
3991.00,0.0043
3990.00,0.0043
3989.00,0.0043
3988.00,0.0043
3987.00,0.0044
3986.00,0.0044
3985.00,0.0044
3984.00,0.0044
3983.00,0.0044
3982.00,0.0043
3981.00,0.0043
3980.00,0.0043
3979.00,0.0043
3978.00,0.0043
3977.00,0.0043
3976.00,0.0043
3975.00,0.0043
3974.00,0.0043
3973.00,0.0044
3972.00,0.0044
3971.00,0.0044
3970.00,0.0044
3969.00,0.0044
3968.00,0.0044
3967.00,0.0043
3966.00,0.0043
3965.00,0.0043
3964.00,0.0042
3963.00,0.0042
3962.00,0.0042
3961.00,0.0042
3960.00,0.0043
3959.00,0.0043
3958.00,0.0043
3957.00,0.0043
3956.00,0.0043
3955.00,0.0043
3954.00,0.0043
3953.00,0.0043
3952.00,0.0043
3951.00,0.0043
3950.00,0.0043
3949.00,0.0042
3948.00,0.0042
3947.00,0.0042
3946.00,0.0042
3945.00,0.0042
3944.00,0.0043
3943.00,0.0043
3942.00,0.0043
3941.00,0.0043
3940.00,0.0042
3939.00,0.0042
3938.00,0.0042
3937.00,0.0042
3936.00,0.0042
3935.00,0.0042
3934.00,0.0042
3933.00,0.0042
3932.00,0.0042
3931.00,0.0043
3930.00,0.0043
3929.00,0.0043
3928.00,0.0043
3927.00,0.0043
3926.00,0.0043
3925.00,0.0043
3924.00,0.0043
3923.00,0.0043
3922.00,0.0043
3921.00,0.0043
3920.00,0.0042
3919.00,0.0042
3918.00,0.0042
3917.00,0.0042
3916.00,0.0042
3915.00,0.0043
3914.00,0.0042
3913.00,0.0042
3912.00,0.0042
3911.00,0.0043
3910.00,0.0043
3909.00,0.0043
3908.00,0.0043
3907.00,0.0043
3906.00,0.0042
3905.00,0.0042
3904.00,0.0042
3903.00,0.0042
3902.00,0.0042
3901.00,0.0042
3900.00,0.0042
3899.00,0.0042
3898.00,0.0042
3897.00,0.0042
3896.00,0.0042
3895.00,0.0042
3894.00,0.0042
3893.00,0.0042
3892.00,0.0042
3891.00,0.0041
3890.00,0.0041
3889.00,0.0041
3888.00,0.0041
3887.00,0.0041
3886.00,0.0042
3885.00,0.0042
3884.00,0.0042
3883.00,0.0041
3882.00,0.0041
3881.00,0.0041
3880.00,0.0042
3879.00,0.0042
3878.00,0.0041
3877.00,0.0041
3876.00,0.0041
3875.00,0.0042
3874.00,0.0042
3873.00,0.0042
3872.00,0.0042
3871.00,0.0042
3870.00,0.0042
3869.00,0.0042
3868.00,0.0042
3867.00,0.0041
3866.00,0.0041
3865.00,0.0041
3864.00,0.0041
3863.00,0.0041
3862.00,0.0041
3861.00,0.0041
3860.00,0.0042
3859.00,0.0042
3858.00,0.0042
3857.00,0.0042
3856.00,0.0041
3855.00,0.0041
3854.00,0.0041
3853.00,0.0040
3852.00,0.0040
3851.00,0.0040
3850.00,0.0040
3849.00,0.0040
3848.00,0.0041
3847.00,0.0041
3846.00,0.0041
3845.00,0.0041
3844.00,0.0041
3843.00,0.0041
3842.00,0.0041
3841.00,0.0041
3840.00,0.0040
3839.00,0.0040
3838.00,0.0041
3837.00,0.0041
3836.00,0.0040
3835.00,0.0040
3834.00,0.0040
3833.00,0.0040
3832.00,0.0040
3831.00,0.0041
3830.00,0.0041
3829.00,0.0041
3828.00,0.0041
3827.00,0.0041
3826.00,0.0041
3825.00,0.0041
3824.00,0.0041
3823.00,0.0041
3822.00,0.0041
3821.00,0.0041
3820.00,0.0041
3819.00,0.0041
3818.00,0.0040
3817.00,0.0040
3816.00,0.0040
3815.00,0.0040
3814.00,0.0040
3813.00,0.0040
3812.00,0.0040
3811.00,0.0040
3810.00,0.0040
3809.00,0.0040
3808.00,0.0040
3807.00,0.0040
3806.00,0.0040
3805.00,0.0040
3804.00,0.0040
3803.00,0.0040
3802.00,0.0040
3801.00,0.0040
3800.00,0.0039
3799.00,0.0039
3798.00,0.0039
3797.00,0.0040
3796.00,0.0040
3795.00,0.0040
3794.00,0.0040
3793.00,0.0040
3792.00,0.0040
3791.00,0.0040
3790.00,0.0040
3789.00,0.0040
3788.00,0.0040
3787.00,0.0040
3786.00,0.0040
3785.00,0.0040
3784.00,0.0040
3783.00,0.0040
3782.00,0.0040
3781.00,0.0040
3780.00,0.0040
3779.00,0.0040
3778.00,0.0040
3777.00,0.0040
3776.00,0.0040
3775.00,0.0040
3774.00,0.0040
3773.00,0.0040
3772.00,0.0040
3771.00,0.0040
3770.00,0.0040
3769.00,0.0040
3768.00,0.0040
3767.00,0.0040
3766.00,0.0040
3765.00,0.0040
3764.00,0.0040
3763.00,0.0040
3762.00,0.0040
3761.00,0.0040
3760.00,0.0040
3759.00,0.0040
3758.00,0.0040
3757.00,0.0040
3756.00,0.0040
3755.00,0.0039
3754.00,0.0039
3753.00,0.0039
3752.00,0.0039
3751.00,0.0038
3750.00,0.0038
3749.00,0.0038
3748.00,0.0038
3747.00,0.0037
3746.00,0.0037
3745.00,0.0037
3744.00,0.0038
3743.00,0.0038
3742.00,0.0038
3741.00,0.0038
3740.00,0.0038
3739.00,0.0038
3738.00,0.0038
3737.00,0.0038
3736.00,0.0038
3735.00,0.0037
3734.00,0.0037
3733.00,0.0037
3732.00,0.0037
3731.00,0.0038
3730.00,0.0038
3729.00,0.0038
3728.00,0.0038
3727.00,0.0038
3726.00,0.0038
3725.00,0.0038
3724.00,0.0037
3723.00,0.0037
3722.00,0.0037
3721.00,0.0037
3720.00,0.0037
3719.00,0.0037
3718.00,0.0037
3717.00,0.0037
3716.00,0.0037
3715.00,0.0037
3714.00,0.0037
3713.00,0.0037
3712.00,0.0037
3711.00,0.0037
3710.00,0.0037
3709.00,0.0036
3708.00,0.0036
3707.00,0.0036
3706.00,0.0036
3705.00,0.0036
3704.00,0.0036
3703.00,0.0036
3702.00,0.0036
3701.00,0.0036
3700.00,0.0036
3699.00,0.0036
3698.00,0.0036
3697.00,0.0036
3696.00,0.0036
3695.00,0.0036
3694.00,0.0036
3693.00,0.0037
3692.00,0.0037
3691.00,0.0036
3690.00,0.0036
3689.00,0.0035
3688.00,0.0035
3687.00,0.0034
3686.00,0.0034
3685.00,0.0035
3684.00,0.0035
3683.00,0.0035
3682.00,0.0035
3681.00,0.0035
3680.00,0.0035
3679.00,0.0035
3678.00,0.0034
3677.00,0.0034
3676.00,0.0034
3675.00,0.0034
3674.00,0.0033
3673.00,0.0033
3672.00,0.0032
3671.00,0.0032
3670.00,0.0032
3669.00,0.0031
3668.00,0.0031
3667.00,0.0032
3666.00,0.0032
3665.00,0.0032
3664.00,0.0033
3663.00,0.0033
3662.00,0.0033
3661.00,0.0033
3660.00,0.0033
3659.00,0.0033
3658.00,0.0033
3657.00,0.0033
3656.00,0.0033
3655.00,0.0033
3654.00,0.0033
3653.00,0.0033
3652.00,0.0033
3651.00,0.0033
3650.00,0.0033
3649.00,0.0033
3648.00,0.0032
3647.00,0.0032
3646.00,0.0032
3645.00,0.0032
3644.00,0.0033
3643.00,0.0033
3642.00,0.0034
3641.00,0.0034
3640.00,0.0034
3639.00,0.0034
3638.00,0.0034
3637.00,0.0034
3636.00,0.0034
3635.00,0.0035
3634.00,0.0035
3633.00,0.0035
3632.00,0.0035
3631.00,0.0035
3630.00,0.0035
3629.00,0.0035
3628.00,0.0035
3627.00,0.0035
3626.00,0.0035
3625.00,0.0035
3624.00,0.0035
3623.00,0.0036
3622.00,0.0036
3621.00,0.0036
3620.00,0.0036
3619.00,0.0036
3618.00,0.0037
3617.00,0.0036
3616.00,0.0036
3615.00,0.0036
3614.00,0.0037
3613.00,0.0037
3612.00,0.0037
3611.00,0.0037
3610.00,0.0037
3609.00,0.0037
3608.00,0.0038
3607.00,0.0038
3606.00,0.0038
3605.00,0.0038
3604.00,0.0039
3603.00,0.0039
3602.00,0.0039
3601.00,0.0039
3600.00,0.0039
3599.00,0.0039
3598.00,0.0039
3597.00,0.0040
3596.00,0.0040
3595.00,0.0040
3594.00,0.0041
3593.00,0.0041
3592.00,0.0041
3591.00,0.0041
3590.00,0.0041
3589.00,0.0042
3588.00,0.0042
3587.00,0.0042
3586.00,0.0043
3585.00,0.0044
3584.00,0.0045
3583.00,0.0046
3582.00,0.0048
3581.00,0.0050
3580.00,0.0052
3579.00,0.0054
3578.00,0.0056
3577.00,0.0058
3576.00,0.0061
3575.00,0.0064
3574.00,0.0067
3573.00,0.0072
3572.00,0.0076
3571.00,0.0082
3570.00,0.0088
3569.00,0.0095
3568.00,0.0103
3567.00,0.0113
3566.00,0.0122
3565.00,0.0130
3564.00,0.0137
3563.00,0.0143
3562.00,0.0147
3561.00,0.0150
3560.00,0.0150
3559.00,0.0149
3558.00,0.0147
3557.00,0.0143
3556.00,0.0138
3555.00,0.0133
3554.00,0.0128
3553.00,0.0123
3552.00,0.0117
3551.00,0.0112
3550.00,0.0108
3549.00,0.0103
3548.00,0.0098
3547.00,0.0094
3546.00,0.0091
3545.00,0.0088
3544.00,0.0086
3543.00,0.0084
3542.00,0.0082
3541.00,0.0081
3540.00,0.0080
3539.00,0.0079
3538.00,0.0078
3537.00,0.0078
3536.00,0.0077
3535.00,0.0077
3534.00,0.0077
3533.00,0.0076
3532.00,0.0076
3531.00,0.0077
3530.00,0.0077
3529.00,0.0077
3528.00,0.0077
3527.00,0.0078
3526.00,0.0078
3525.00,0.0079
3524.00,0.0079
3523.00,0.0080
3522.00,0.0081
3521.00,0.0082
3520.00,0.0082
3519.00,0.0083
3518.00,0.0084
3517.00,0.0085
3516.00,0.0085
3515.00,0.0086
3514.00,0.0087
3513.00,0.0088
3512.00,0.0089
3511.00,0.0091
3510.00,0.0092
3509.00,0.0093
3508.00,0.0094
3507.00,0.0095
3506.00,0.0095
3505.00,0.0097
3504.00,0.0098
3503.00,0.0099
3502.00,0.0100
3501.00,0.0102
3500.00,0.0103
3499.00,0.0104
3498.00,0.0105
3497.00,0.0107
3496.00,0.0108
3495.00,0.0109
3494.00,0.0111
3493.00,0.0112
3492.00,0.0113
3491.00,0.0115
3490.00,0.0116
3489.00,0.0117
3488.00,0.0119
3487.00,0.0120
3486.00,0.0121
3485.00,0.0123
3484.00,0.0124
3483.00,0.0126
3482.00,0.0127
3481.00,0.0128
3480.00,0.0130
3479.00,0.0131
3478.00,0.0133
3477.00,0.0134
3476.00,0.0135
3475.00,0.0137
3474.00,0.0138
3473.00,0.0139
3472.00,0.0141
3471.00,0.0142
3470.00,0.0143
3469.00,0.0144
3468.00,0.0145
3467.00,0.0146
3466.00,0.0147
3465.00,0.0149
3464.00,0.0150
3463.00,0.0151
3462.00,0.0152
3461.00,0.0153
3460.00,0.0155
3459.00,0.0156
3458.00,0.0158
3457.00,0.0159
3456.00,0.0160
3455.00,0.0162
3454.00,0.0163
3453.00,0.0165
3452.00,0.0167
3451.00,0.0168
3450.00,0.0170
3449.00,0.0172
3448.00,0.0174
3447.00,0.0176
3446.00,0.0178
3445.00,0.0181
3444.00,0.0183
3443.00,0.0185
3442.00,0.0188
3441.00,0.0190
3440.00,0.0193
3439.00,0.0196
3438.00,0.0199
3437.00,0.0202
3436.00,0.0206
3435.00,0.0209
3434.00,0.0212
3433.00,0.0216
3432.00,0.0219
3431.00,0.0223
3430.00,0.0227
3429.00,0.0231
3428.00,0.0234
3427.00,0.0238
3426.00,0.0241
3425.00,0.0245
3424.00,0.0248
3423.00,0.0252
3422.00,0.0255
3421.00,0.0258
3420.00,0.0261
3419.00,0.0264
3418.00,0.0266
3417.00,0.0269
3416.00,0.0271
3415.00,0.0274
3414.00,0.0276
3413.00,0.0278
3412.00,0.0280
3411.00,0.0282
3410.00,0.0284
3409.00,0.0285
3408.00,0.0287
3407.00,0.0289
3406.00,0.0291
3405.00,0.0293
3404.00,0.0296
3403.00,0.0298
3402.00,0.0301
3401.00,0.0304
3400.00,0.0307
3399.00,0.0310
3398.00,0.0313
3397.00,0.0317
3396.00,0.0322
3395.00,0.0326
3394.00,0.0331
3393.00,0.0336
3392.00,0.0341
3391.00,0.0345
3390.00,0.0350
3389.00,0.0354
3388.00,0.0358
3387.00,0.0361
3386.00,0.0364
3385.00,0.0366
3384.00,0.0367
3383.00,0.0368
3382.00,0.0368
3381.00,0.0368
3380.00,0.0366
3379.00,0.0365
3378.00,0.0363
3377.00,0.0360
3376.00,0.0358
3375.00,0.0355
3374.00,0.0353
3373.00,0.0351
3372.00,0.0348
3371.00,0.0346
3370.00,0.0344
3369.00,0.0342
3368.00,0.0340
3367.00,0.0338
3366.00,0.0337
3365.00,0.0336
3364.00,0.0335
3363.00,0.0335
3362.00,0.0335
3361.00,0.0335
3360.00,0.0336
3359.00,0.0336
3358.00,0.0337
3357.00,0.0339
3356.00,0.0340
3355.00,0.0341
3354.00,0.0343
3353.00,0.0345
3352.00,0.0347
3351.00,0.0349
3350.00,0.0351
3349.00,0.0353
3348.00,0.0355
3347.00,0.0358
3346.00,0.0360
3345.00,0.0363
3344.00,0.0366
3343.00,0.0369
3342.00,0.0371
3341.00,0.0374
3340.00,0.0376
3339.00,0.0378
3338.00,0.0381
3337.00,0.0383
3336.00,0.0384
3335.00,0.0386
3334.00,0.0387
3333.00,0.0388
3332.00,0.0389
3331.00,0.0390
3330.00,0.0391
3329.00,0.0392
3328.00,0.0392
3327.00,0.0392
3326.00,0.0393
3325.00,0.0392
3324.00,0.0392
3323.00,0.0392
3322.00,0.0392
3321.00,0.0392
3320.00,0.0392
3319.00,0.0391
3318.00,0.0391
3317.00,0.0391
3316.00,0.0390
3315.00,0.0389
3314.00,0.0389
3313.00,0.0388
3312.00,0.0387
3311.00,0.0386
3310.00,0.0386
3309.00,0.0385
3308.00,0.0385
3307.00,0.0384
3306.00,0.0383
3305.00,0.0382
3304.00,0.0381
3303.00,0.0380
3302.00,0.0379
3301.00,0.0378
3300.00,0.0378
3299.00,0.0377
3298.00,0.0376
3297.00,0.0375
3296.00,0.0374
3295.00,0.0373
3294.00,0.0372
3293.00,0.0370
3292.00,0.0369
3291.00,0.0368
3290.00,0.0367
3289.00,0.0366
3288.00,0.0365
3287.00,0.0364
3286.00,0.0363
3285.00,0.0362
3284.00,0.0361
3283.00,0.0360
3282.00,0.0359
3281.00,0.0357
3280.00,0.0356
3279.00,0.0355
3278.00,0.0354
3277.00,0.0353
3276.00,0.0353
3275.00,0.0352
3274.00,0.0351
3273.00,0.0350
3272.00,0.0349
3271.00,0.0348
3270.00,0.0347
3269.00,0.0346
3268.00,0.0345
3267.00,0.0344
3266.00,0.0343
3265.00,0.0343
3264.00,0.0342
3263.00,0.0341
3262.00,0.0340
3261.00,0.0340
3260.00,0.0339
3259.00,0.0339
3258.00,0.0338
3257.00,0.0337
3256.00,0.0337
3255.00,0.0336
3254.00,0.0335
3253.00,0.0335
3252.00,0.0334
3251.00,0.0334
3250.00,0.0334
3249.00,0.0333
3248.00,0.0333
3247.00,0.0333
3246.00,0.0333
3245.00,0.0332
3244.00,0.0331
3243.00,0.0331
3242.00,0.0330
3241.00,0.0329
3240.00,0.0329
3239.00,0.0328
3238.00,0.0328
3237.00,0.0327
3236.00,0.0326
3235.00,0.0325
3234.00,0.0324
3233.00,0.0323
3232.00,0.0322
3231.00,0.0321
3230.00,0.0319
3229.00,0.0318
3228.00,0.0317
3227.00,0.0315
3226.00,0.0314
3225.00,0.0312
3224.00,0.0310
3223.00,0.0308
3222.00,0.0306
3221.00,0.0305
3220.00,0.0303
3219.00,0.0301
3218.00,0.0299
3217.00,0.0297
3216.00,0.0295
3215.00,0.0293
3214.00,0.0290
3213.00,0.0288
3212.00,0.0286
3211.00,0.0283
3210.00,0.0281
3209.00,0.0279
3208.00,0.0276
3207.00,0.0274
3206.00,0.0272
3205.00,0.0269
3204.00,0.0267
3203.00,0.0265
3202.00,0.0263
3201.00,0.0260
3200.00,0.0258
3199.00,0.0255
3198.00,0.0253
3197.00,0.0251
3196.00,0.0249
3195.00,0.0247
3194.00,0.0246
3193.00,0.0243
3192.00,0.0241
3191.00,0.0239
3190.00,0.0237
3189.00,0.0235
3188.00,0.0233
3187.00,0.0231
3186.00,0.0229
3185.00,0.0227
3184.00,0.0225
3183.00,0.0223
3182.00,0.0222
3181.00,0.0220
3180.00,0.0218
3179.00,0.0216
3178.00,0.0214
3177.00,0.0212
3176.00,0.0211
3175.00,0.0209
3174.00,0.0208
3173.00,0.0206
3172.00,0.0205
3171.00,0.0203
3170.00,0.0202
3169.00,0.0200
3168.00,0.0199
3167.00,0.0198
3166.00,0.0196
3165.00,0.0195
3164.00,0.0193
3163.00,0.0191
3162.00,0.0190
3161.00,0.0188
3160.00,0.0187
3159.00,0.0186
3158.00,0.0185
3157.00,0.0184
3156.00,0.0183
3155.00,0.0181
3154.00,0.0180
3153.00,0.0179
3152.00,0.0177
3151.00,0.0176
3150.00,0.0175
3149.00,0.0173
3148.00,0.0172
3147.00,0.0170
3146.00,0.0169
3145.00,0.0168
3144.00,0.0167
3143.00,0.0166
3142.00,0.0165
3141.00,0.0164
3140.00,0.0163
3139.00,0.0162
3138.00,0.0161
3137.00,0.0159
3136.00,0.0158
3135.00,0.0157
3134.00,0.0156
3133.00,0.0155
3132.00,0.0154
3131.00,0.0153
3130.00,0.0152
3129.00,0.0151
3128.00,0.0150
3127.00,0.0149
3126.00,0.0148
3125.00,0.0147
3124.00,0.0147
3123.00,0.0146
3122.00,0.0145
3121.00,0.0144
3120.00,0.0143
3119.00,0.0142
3118.00,0.0141
3117.00,0.0140
3116.00,0.0140
3115.00,0.0139
3114.00,0.0138
3113.00,0.0138
3112.00,0.0137
3111.00,0.0136
3110.00,0.0135
3109.00,0.0134
3108.00,0.0133
3107.00,0.0132
3106.00,0.0131
3105.00,0.0131
3104.00,0.0130
3103.00,0.0129
3102.00,0.0129
3101.00,0.0128
3100.00,0.0127
3099.00,0.0127
3098.00,0.0126
3097.00,0.0125
3096.00,0.0125
3095.00,0.0124
3094.00,0.0123
3093.00,0.0123
3092.00,0.0122
3091.00,0.0121
3090.00,0.0120
3089.00,0.0120
3088.00,0.0119
3087.00,0.0118
3086.00,0.0118
3085.00,0.0117
3084.00,0.0117
3083.00,0.0116
3082.00,0.0116
3081.00,0.0115
3080.00,0.0114
3079.00,0.0113
3078.00,0.0113
3077.00,0.0112
3076.00,0.0112
3075.00,0.0111
3074.00,0.0111
3073.00,0.0110
3072.00,0.0110
3071.00,0.0110
3070.00,0.0109
3069.00,0.0109
3068.00,0.0108
3067.00,0.0108
3066.00,0.0107
3065.00,0.0107
3064.00,0.0106
3063.00,0.0106
3062.00,0.0105
3061.00,0.0105
3060.00,0.0105
3059.00,0.0104
3058.00,0.0104
3057.00,0.0103
3056.00,0.0103
3055.00,0.0102
3054.00,0.0102
3053.00,0.0102
3052.00,0.0102
3051.00,0.0101
3050.00,0.0101
3049.00,0.0100
3048.00,0.0099
3047.00,0.0099
3046.00,0.0099
3045.00,0.0098
3044.00,0.0098
3043.00,0.0098
3042.00,0.0097
3041.00,0.0097
3040.00,0.0097
3039.00,0.0097
3038.00,0.0096
3037.00,0.0096
3036.00,0.0095
3035.00,0.0095
3034.00,0.0094
3033.00,0.0094
3032.00,0.0094
3031.00,0.0093
3030.00,0.0093
3029.00,0.0093
3028.00,0.0093
3027.00,0.0093
3026.00,0.0093
3025.00,0.0093
3024.00,0.0093
3023.00,0.0093
3022.00,0.0093
3021.00,0.0093
3020.00,0.0093
3019.00,0.0094
3018.00,0.0094
3017.00,0.0095
3016.00,0.0095
3015.00,0.0096
3014.00,0.0095
3013.00,0.0094
3012.00,0.0093
3011.00,0.0091
3010.00,0.0089
3009.00,0.0087
3008.00,0.0085
3007.00,0.0084
3006.00,0.0082
3005.00,0.0081
3004.00,0.0081
3003.00,0.0081
3002.00,0.0081
3001.00,0.0081
3000.00,0.0083
2999.00,0.0085
2998.00,0.0087
2997.00,0.0090
2996.00,0.0092
2995.00,0.0093
2994.00,0.0093
2993.00,0.0091
2992.00,0.0089
2991.00,0.0087
2990.00,0.0085
2989.00,0.0084
2988.00,0.0084
2987.00,0.0084
2986.00,0.0084
2985.00,0.0083
2984.00,0.0081
2983.00,0.0078
2982.00,0.0075
2981.00,0.0073
2980.00,0.0072
2979.00,0.0073
2978.00,0.0075
2977.00,0.0078
2976.00,0.0082
2975.00,0.0087
2974.00,0.0093
2973.00,0.0098
2972.00,0.0101
2971.00,0.0102
2970.00,0.0100
2969.00,0.0097
2968.00,0.0094
2967.00,0.0091
2966.00,0.0089
2965.00,0.0089
2964.00,0.0089
2963.00,0.0090
2962.00,0.0091
2961.00,0.0093
2960.00,0.0095
2959.00,0.0096
2958.00,0.0097
2957.00,0.0098
2956.00,0.0099
2955.00,0.0099
2954.00,0.0100
2953.00,0.0102
2952.00,0.0105
2951.00,0.0109
2950.00,0.0114
2949.00,0.0122
2948.00,0.0130
2947.00,0.0140
2946.00,0.0149
2945.00,0.0158
2944.00,0.0165
2943.00,0.0170
2942.00,0.0172
2941.00,0.0172
2940.00,0.0171
2939.00,0.0169
2938.00,0.0167
2937.00,0.0166
2936.00,0.0166
2935.00,0.0166
2934.00,0.0165
2933.00,0.0164
2932.00,0.0162
2931.00,0.0158
2930.00,0.0154
2929.00,0.0149
2928.00,0.0144
2927.00,0.0140
2926.00,0.0137
2925.00,0.0134
2924.00,0.0132
2923.00,0.0131
2922.00,0.0131
2921.00,0.0132
2920.00,0.0134
2919.00,0.0137
2918.00,0.0142
2917.00,0.0147
2916.00,0.0152
2915.00,0.0156
2914.00,0.0158
2913.00,0.0158
2912.00,0.0156
2911.00,0.0152
2910.00,0.0147
2909.00,0.0142
2908.00,0.0138
2907.00,0.0135
2906.00,0.0133
2905.00,0.0132
2904.00,0.0132
2903.00,0.0132
2902.00,0.0132
2901.00,0.0134
2900.00,0.0135
2899.00,0.0136
2898.00,0.0138
2897.00,0.0138
2896.00,0.0138
2895.00,0.0138
2894.00,0.0137
2893.00,0.0136
2892.00,0.0134
2891.00,0.0133
2890.00,0.0131
2889.00,0.0129
2888.00,0.0127
2887.00,0.0126
2886.00,0.0125
2885.00,0.0124
2884.00,0.0123
2883.00,0.0122
2882.00,0.0121
2881.00,0.0121
2880.00,0.0120
2879.00,0.0120
2878.00,0.0120
2877.00,0.0119
2876.00,0.0118
2875.00,0.0118
2874.00,0.0117
2873.00,0.0117
2872.00,0.0116
2871.00,0.0116
2870.00,0.0115
2869.00,0.0115
2868.00,0.0114
2867.00,0.0113
2866.00,0.0113
2865.00,0.0112
2864.00,0.0112
2863.00,0.0111
2862.00,0.0111
2861.00,0.0110
2860.00,0.0110
2859.00,0.0110
2858.00,0.0109
2857.00,0.0109
2856.00,0.0109
2855.00,0.0108
2854.00,0.0108
2853.00,0.0107
2852.00,0.0107
2851.00,0.0107
2850.00,0.0107
2849.00,0.0106
2848.00,0.0106
2847.00,0.0106
2846.00,0.0106
2845.00,0.0106
2844.00,0.0106
2843.00,0.0106
2842.00,0.0106
2841.00,0.0106
2840.00,0.0106
2839.00,0.0106
2838.00,0.0105
2837.00,0.0105
2836.00,0.0105
2835.00,0.0105
2834.00,0.0105
2833.00,0.0105
2832.00,0.0105
2831.00,0.0105
2830.00,0.0105
2829.00,0.0105
2828.00,0.0105
2827.00,0.0104
2826.00,0.0104
2825.00,0.0103
2824.00,0.0103
2823.00,0.0103
2822.00,0.0103
2821.00,0.0102
2820.00,0.0102
2819.00,0.0101
2818.00,0.0101
2817.00,0.0100
2816.00,0.0100
2815.00,0.0100
2814.00,0.0100
2813.00,0.0099
2812.00,0.0099
2811.00,0.0099
2810.00,0.0098
2809.00,0.0098
2808.00,0.0098
2807.00,0.0097
2806.00,0.0097
2805.00,0.0097
2804.00,0.0097
2803.00,0.0096
2802.00,0.0096
2801.00,0.0095
2800.00,0.0095
2799.00,0.0095
2798.00,0.0095
2797.00,0.0095
2796.00,0.0094
2795.00,0.0094
2794.00,0.0094
2793.00,0.0094
2792.00,0.0093
2791.00,0.0093
2790.00,0.0093
2789.00,0.0092
2788.00,0.0092
2787.00,0.0092
2786.00,0.0092
2785.00,0.0092
2784.00,0.0092
2783.00,0.0091
2782.00,0.0091
2781.00,0.0091
2780.00,0.0091
2779.00,0.0091
2778.00,0.0090
2777.00,0.0090
2776.00,0.0090
2775.00,0.0090
2774.00,0.0090
2773.00,0.0090
2772.00,0.0089
2771.00,0.0089
2770.00,0.0089
2769.00,0.0089
2768.00,0.0089
2767.00,0.0089
2766.00,0.0089
2765.00,0.0089
2764.00,0.0089
2763.00,0.0088
2762.00,0.0088
2761.00,0.0088
2760.00,0.0088
2759.00,0.0088
2758.00,0.0087
2757.00,0.0087
2756.00,0.0087
2755.00,0.0087
2754.00,0.0087
2753.00,0.0086
2752.00,0.0086
2751.00,0.0086
2750.00,0.0086
2749.00,0.0086
2748.00,0.0086
2747.00,0.0086
2746.00,0.0086
2745.00,0.0086
2744.00,0.0086
2743.00,0.0086
2742.00,0.0086
2741.00,0.0086
2740.00,0.0086
2739.00,0.0086
2738.00,0.0086
2737.00,0.0087
2736.00,0.0087
2735.00,0.0088
2734.00,0.0089
2733.00,0.0089
2732.00,0.0089
2731.00,0.0090
2730.00,0.0090
2729.00,0.0090
2728.00,0.0091
2727.00,0.0091
2726.00,0.0091
2725.00,0.0091
2724.00,0.0091
2723.00,0.0091
2722.00,0.0091
2721.00,0.0091
2720.00,0.0091
2719.00,0.0091
2718.00,0.0090
2717.00,0.0090
2716.00,0.0090
2715.00,0.0089
2714.00,0.0089
2713.00,0.0089
2712.00,0.0089
2711.00,0.0089
2710.00,0.0088
2709.00,0.0088
2708.00,0.0088
2707.00,0.0088
2706.00,0.0088
2705.00,0.0088
2704.00,0.0087
2703.00,0.0087
2702.00,0.0087
2701.00,0.0087
2700.00,0.0087
2699.00,0.0086
2698.00,0.0086
2697.00,0.0086
2696.00,0.0086
2695.00,0.0085
2694.00,0.0085
2693.00,0.0085
2692.00,0.0084
2691.00,0.0084
2690.00,0.0084
2689.00,0.0084
2688.00,0.0084
2687.00,0.0083
2686.00,0.0083
2685.00,0.0083
2684.00,0.0083
2683.00,0.0083
2682.00,0.0082
2681.00,0.0082
2680.00,0.0082
2679.00,0.0081
2678.00,0.0081
2677.00,0.0081
2676.00,0.0081
2675.00,0.0081
2674.00,0.0081
2673.00,0.0081
2672.00,0.0081
2671.00,0.0081
2670.00,0.0081
2669.00,0.0081
2668.00,0.0081
2667.00,0.0081
2666.00,0.0082
2665.00,0.0082
2664.00,0.0083
2663.00,0.0083
2662.00,0.0084
2661.00,0.0084
2660.00,0.0085
2659.00,0.0085
2658.00,0.0085
2657.00,0.0085
2656.00,0.0085
2655.00,0.0085
2654.00,0.0086
2653.00,0.0086
2652.00,0.0086
2651.00,0.0086
2650.00,0.0086
2649.00,0.0086
2648.00,0.0086
2647.00,0.0086
2646.00,0.0086
2645.00,0.0086
2644.00,0.0086
2643.00,0.0086
2642.00,0.0086
2641.00,0.0086
2640.00,0.0085
2639.00,0.0085
2638.00,0.0085
2637.00,0.0085
2636.00,0.0085
2635.00,0.0085
2634.00,0.0084
2633.00,0.0084
2632.00,0.0084
2631.00,0.0084
2630.00,0.0084
2629.00,0.0083
2628.00,0.0083
2627.00,0.0082
2626.00,0.0082
2625.00,0.0082
2624.00,0.0082
2623.00,0.0081
2622.00,0.0081
2621.00,0.0081
2620.00,0.0081
2619.00,0.0080
2618.00,0.0080
2617.00,0.0079
2616.00,0.0079
2615.00,0.0079
2614.00,0.0078
2613.00,0.0078
2612.00,0.0078
2611.00,0.0078
2610.00,0.0077
2609.00,0.0077
2608.00,0.0077
2607.00,0.0077
2606.00,0.0077
2605.00,0.0076
2604.00,0.0076
2603.00,0.0075
2602.00,0.0075
2601.00,0.0075
2600.00,0.0075
2599.00,0.0074
2598.00,0.0074
2597.00,0.0074
2596.00,0.0074
2595.00,0.0074
2594.00,0.0074
2593.00,0.0074
2592.00,0.0074
2591.00,0.0074
2590.00,0.0074
2589.00,0.0074
2588.00,0.0074
2587.00,0.0074
2586.00,0.0074
2585.00,0.0074
2584.00,0.0074
2583.00,0.0074
2582.00,0.0074
2581.00,0.0074
2580.00,0.0074
2579.00,0.0073
2578.00,0.0073
2577.00,0.0073
2576.00,0.0073
2575.00,0.0073
2574.00,0.0073
2573.00,0.0072
2572.00,0.0072
2571.00,0.0072
2570.00,0.0072
2569.00,0.0072
2568.00,0.0072
2567.00,0.0072
2566.00,0.0072
2565.00,0.0072
2564.00,0.0072
2563.00,0.0072
2562.00,0.0072
2561.00,0.0072
2560.00,0.0072
2559.00,0.0072
2558.00,0.0072
2557.00,0.0072
2556.00,0.0072
2555.00,0.0072
2554.00,0.0073
2553.00,0.0073
2552.00,0.0073
2551.00,0.0072
2550.00,0.0072
2549.00,0.0072
2548.00,0.0072
2547.00,0.0071
2546.00,0.0071
2545.00,0.0071
2544.00,0.0070
2543.00,0.0070
2542.00,0.0070
2541.00,0.0070
2540.00,0.0069
2539.00,0.0069
2538.00,0.0069
2537.00,0.0069
2536.00,0.0068
2535.00,0.0068
2534.00,0.0068
2533.00,0.0068
2532.00,0.0068
2531.00,0.0068
2530.00,0.0068
2529.00,0.0068
2528.00,0.0068
2527.00,0.0068
2526.00,0.0067
2525.00,0.0067
2524.00,0.0067
2523.00,0.0067
2522.00,0.0067
2521.00,0.0067
2520.00,0.0067
2519.00,0.0067
2518.00,0.0067
2517.00,0.0067
2516.00,0.0067
2515.00,0.0067
2514.00,0.0067
2513.00,0.0067
2512.00,0.0067
2511.00,0.0066
2510.00,0.0066
2509.00,0.0066
2508.00,0.0067
2507.00,0.0067
2506.00,0.0067
2505.00,0.0067
2504.00,0.0067
2503.00,0.0067
2502.00,0.0068
2501.00,0.0068
2500.00,0.0067
2499.00,0.0067
2498.00,0.0067
2497.00,0.0066
2496.00,0.0066
2495.00,0.0066
2494.00,0.0067
2493.00,0.0067
2492.00,0.0067
2491.00,0.0067
2490.00,0.0067
2489.00,0.0067
2488.00,0.0067
2487.00,0.0067
2486.00,0.0067
2485.00,0.0066
2484.00,0.0066
2483.00,0.0066
2482.00,0.0067
2481.00,0.0067
2480.00,0.0067
2479.00,0.0067
2478.00,0.0067
2477.00,0.0066
2476.00,0.0066
2475.00,0.0066
2474.00,0.0066
2473.00,0.0066
2472.00,0.0066
2471.00,0.0066
2470.00,0.0066
2469.00,0.0066
2468.00,0.0066
2467.00,0.0066
2466.00,0.0066
2465.00,0.0066
2464.00,0.0066
2463.00,0.0066
2462.00,0.0066
2461.00,0.0066
2460.00,0.0066
2459.00,0.0066
2458.00,0.0066
2457.00,0.0066
2456.00,0.0067
2455.00,0.0067
2454.00,0.0067
2453.00,0.0066
2452.00,0.0066
2451.00,0.0065
2450.00,0.0065
2449.00,0.0065
2448.00,0.0065
2447.00,0.0065
2446.00,0.0065
2445.00,0.0065
2444.00,0.0065
2443.00,0.0065
2442.00,0.0064
2441.00,0.0064
2440.00,0.0063
2439.00,0.0063
2438.00,0.0063
2437.00,0.0063
2436.00,0.0063
2435.00,0.0063
2434.00,0.0062
2433.00,0.0062
2432.00,0.0062
2431.00,0.0062
2430.00,0.0062
2429.00,0.0061
2428.00,0.0062
2427.00,0.0061
2426.00,0.0061
2425.00,0.0061
2424.00,0.0061
2423.00,0.0060
2422.00,0.0060
2421.00,0.0060
2420.00,0.0059
2419.00,0.0059
2418.00,0.0059
2417.00,0.0059
2416.00,0.0059
2415.00,0.0059
2414.00,0.0059
2413.00,0.0059
2412.00,0.0059
2411.00,0.0059
2410.00,0.0058
2409.00,0.0058
2408.00,0.0058
2407.00,0.0058
2406.00,0.0058
2405.00,0.0058
2404.00,0.0058
2403.00,0.0058
2402.00,0.0058
2401.00,0.0058
2400.00,0.0057
2399.00,0.0057
2398.00,0.0057
2397.00,0.0057
2396.00,0.0057
2395.00,0.0057
2394.00,0.0057
2393.00,0.0057
2392.00,0.0057
2391.00,0.0057
2390.00,0.0057
2389.00,0.0056
2388.00,0.0055
2387.00,0.0055
2386.00,0.0054
2385.00,0.0054
2384.00,0.0054
2383.00,0.0054
2382.00,0.0053
2381.00,0.0053
2380.00,0.0053
2379.00,0.0053
2378.00,0.0053
2377.00,0.0053
2376.00,0.0053
2375.00,0.0053
2374.00,0.0053
2373.00,0.0052
2372.00,0.0052
2371.00,0.0052
2370.00,0.0051
2369.00,0.0051
2368.00,0.0051
2367.00,0.0051
2366.00,0.0052
2365.00,0.0052
2364.00,0.0052
2363.00,0.0052
2362.00,0.0052
2361.00,0.0053
2360.00,0.0053
2359.00,0.0053
2358.00,0.0053
2357.00,0.0053
2356.00,0.0053
2355.00,0.0053
2354.00,0.0053
2353.00,0.0052
2352.00,0.0052
2351.00,0.0053
2350.00,0.0053
2349.00,0.0053
2348.00,0.0053
2347.00,0.0053
2346.00,0.0054
2345.00,0.0054
2344.00,0.0054
2343.00,0.0054
2342.00,0.0055
2341.00,0.0055
2340.00,0.0055
2339.00,0.0055
2338.00,0.0055
2337.00,0.0055
2336.00,0.0055
2335.00,0.0055
2334.00,0.0054
2333.00,0.0054
2332.00,0.0054
2331.00,0.0054
2330.00,0.0054
2329.00,0.0056
2328.00,0.0059
2327.00,0.0062
2326.00,0.0065
2325.00,0.0066
2324.00,0.0066
2323.00,0.0064
2322.00,0.0063
2321.00,0.0062
2320.00,0.0061
2319.00,0.0060
2318.00,0.0059
2317.00,0.0059
2316.00,0.0058
2315.00,0.0058
2314.00,0.0058
2313.00,0.0057
2312.00,0.0057
2311.00,0.0057
2310.00,0.0057
2309.00,0.0057
2308.00,0.0057
2307.00,0.0057
2306.00,0.0058
2305.00,0.0058
2304.00,0.0058
2303.00,0.0058
2302.00,0.0059
2301.00,0.0059
2300.00,0.0059
2299.00,0.0059
2298.00,0.0059
2297.00,0.0060
2296.00,0.0060
2295.00,0.0061
2294.00,0.0061
2293.00,0.0062
2292.00,0.0063
2291.00,0.0064
2290.00,0.0064
2289.00,0.0064
2288.00,0.0064
2287.00,0.0064
2286.00,0.0064
2285.00,0.0063
2284.00,0.0063
2283.00,0.0062
2282.00,0.0061
2281.00,0.0061
2280.00,0.0060
2279.00,0.0060
2278.00,0.0059
2277.00,0.0059
2276.00,0.0059
2275.00,0.0059
2274.00,0.0058
2273.00,0.0058
2272.00,0.0058
2271.00,0.0058
2270.00,0.0057
2269.00,0.0057
2268.00,0.0057
2267.00,0.0056
2266.00,0.0056
2265.00,0.0055
2264.00,0.0055
2263.00,0.0055
2262.00,0.0055
2261.00,0.0056
2260.00,0.0056
2259.00,0.0056
2258.00,0.0057
2257.00,0.0056
2256.00,0.0056
2255.00,0.0055
2254.00,0.0054
2253.00,0.0054
2252.00,0.0054
2251.00,0.0055
2250.00,0.0055
2249.00,0.0055
2248.00,0.0055
2247.00,0.0054
2246.00,0.0055
2245.00,0.0055
2244.00,0.0056
2243.00,0.0056
2242.00,0.0056
2241.00,0.0056
2240.00,0.0056
2239.00,0.0056
2238.00,0.0055
2237.00,0.0055
2236.00,0.0055
2235.00,0.0054
2234.00,0.0054
2233.00,0.0054
2232.00,0.0054
2231.00,0.0054
2230.00,0.0054
2229.00,0.0055
2228.00,0.0055
2227.00,0.0055
2226.00,0.0055
2225.00,0.0055
2224.00,0.0055
2223.00,0.0055
2222.00,0.0055
2221.00,0.0055
2220.00,0.0055
2219.00,0.0054
2218.00,0.0055
2217.00,0.0055
2216.00,0.0055
2215.00,0.0054
2214.00,0.0054
2213.00,0.0054
2212.00,0.0053
2211.00,0.0053
2210.00,0.0052
2209.00,0.0051
2208.00,0.0051
2207.00,0.0051
2206.00,0.0051
2205.00,0.0051
2204.00,0.0051
2203.00,0.0051
2202.00,0.0051
2201.00,0.0052
2200.00,0.0052
2199.00,0.0053
2198.00,0.0054
2197.00,0.0055
2196.00,0.0056
2195.00,0.0057
2194.00,0.0057
2193.00,0.0057
2192.00,0.0056
2191.00,0.0056
2190.00,0.0056
2189.00,0.0056
2188.00,0.0057
2187.00,0.0057
2186.00,0.0058
2185.00,0.0057
2184.00,0.0055
2183.00,0.0052
2182.00,0.0051
2181.00,0.0050
2180.00,0.0049
2179.00,0.0049
2178.00,0.0048
2177.00,0.0048
2176.00,0.0048
2175.00,0.0049
2174.00,0.0050
2173.00,0.0051
2172.00,0.0052
2171.00,0.0053
2170.00,0.0055
2169.00,0.0056
2168.00,0.0058
2167.00,0.0060
2166.00,0.0061
2165.00,0.0062
2164.00,0.0062
2163.00,0.0060
2162.00,0.0055
2161.00,0.0045
2160.00,0.0033
2159.00,0.0024
2158.00,0.0019
2157.00,0.0019
2156.00,0.0022
2155.00,0.0026
2154.00,0.0029
2153.00,0.0032
2152.00,0.0034
2151.00,0.0034
2150.00,0.0034
2149.00,0.0033
2148.00,0.0033
2147.00,0.0033
2146.00,0.0033
2145.00,0.0034
2144.00,0.0034
2143.00,0.0034
2142.00,0.0033
2141.00,0.0032
2140.00,0.0032
2139.00,0.0032
2138.00,0.0031
2137.00,0.0030
2136.00,0.0029
2135.00,0.0028
2134.00,0.0028
2133.00,0.0029
2132.00,0.0031
2131.00,0.0033
2130.00,0.0035
2129.00,0.0036
2128.00,0.0037
2127.00,0.0038
2126.00,0.0039
2125.00,0.0040
2124.00,0.0041
2123.00,0.0042
2122.00,0.0043
2121.00,0.0044
2120.00,0.0045
2119.00,0.0046
2118.00,0.0047
2117.00,0.0048
2116.00,0.0048
2115.00,0.0049
2114.00,0.0048
2113.00,0.0048
2112.00,0.0048
2111.00,0.0048
2110.00,0.0048
2109.00,0.0048
2108.00,0.0048
2107.00,0.0047
2106.00,0.0046
2105.00,0.0046
2104.00,0.0046
2103.00,0.0046
2102.00,0.0046
2101.00,0.0046
2100.00,0.0046
2099.00,0.0045
2098.00,0.0044
2097.00,0.0042
2096.00,0.0040
2095.00,0.0040
2094.00,0.0040
2093.00,0.0041
2092.00,0.0042
2091.00,0.0043
2090.00,0.0043
2089.00,0.0044
2088.00,0.0044
2087.00,0.0044
2086.00,0.0045
2085.00,0.0045
2084.00,0.0045
2083.00,0.0046
2082.00,0.0046
2081.00,0.0046
2080.00,0.0047
2079.00,0.0047
2078.00,0.0048
2077.00,0.0049
2076.00,0.0048
2075.00,0.0047
2074.00,0.0046
2073.00,0.0045
2072.00,0.0044
2071.00,0.0044
2070.00,0.0044
2069.00,0.0044
2068.00,0.0043
2067.00,0.0043
2066.00,0.0043
2065.00,0.0043
2064.00,0.0044
2063.00,0.0044
2062.00,0.0044
2061.00,0.0044
2060.00,0.0045
2059.00,0.0045
2058.00,0.0046
2057.00,0.0046
2056.00,0.0046
2055.00,0.0047
2054.00,0.0049
2053.00,0.0054
2052.00,0.0058
2051.00,0.0059
2050.00,0.0058
2049.00,0.0055
2048.00,0.0052
2047.00,0.0050
2046.00,0.0048
2045.00,0.0047
2044.00,0.0046
2043.00,0.0045
2042.00,0.0046
2041.00,0.0047
2040.00,0.0048
2039.00,0.0048
2038.00,0.0048
2037.00,0.0046
2036.00,0.0045
2035.00,0.0042
2034.00,0.0040
2033.00,0.0038
2032.00,0.0036
2031.00,0.0035
2030.00,0.0034
2029.00,0.0034
2028.00,0.0033
2027.00,0.0032
2026.00,0.0031
2025.00,0.0031
2024.00,0.0030
2023.00,0.0030
2022.00,0.0030
2021.00,0.0030
2020.00,0.0031
2019.00,0.0031
2018.00,0.0031
2017.00,0.0032
2016.00,0.0032
2015.00,0.0033
2014.00,0.0033
2013.00,0.0034
2012.00,0.0035
2011.00,0.0035
2010.00,0.0033
2009.00,0.0030
2008.00,0.0027
2007.00,0.0025
2006.00,0.0023
2005.00,0.0023
2004.00,0.0024
2003.00,0.0026
2002.00,0.0028
2001.00,0.0030
2000.00,0.0031
1999.00,0.0032
1998.00,0.0032
1997.00,0.0033
1996.00,0.0034
1995.00,0.0035
1994.00,0.0036
1993.00,0.0036
1992.00,0.0037
1991.00,0.0037
1990.00,0.0037
1989.00,0.0036
1988.00,0.0036
1987.00,0.0037
1986.00,0.0038
1985.00,0.0039
1984.00,0.0040
1983.00,0.0041
1982.00,0.0041
1981.00,0.0040
1980.00,0.0036
1979.00,0.0031
1978.00,0.0025
1977.00,0.0021
1976.00,0.0019
1975.00,0.0017
1974.00,0.0016
1973.00,0.0017
1972.00,0.0019
1971.00,0.0021
1970.00,0.0023
1969.00,0.0023
1968.00,0.0023
1967.00,0.0022
1966.00,0.0023
1965.00,0.0024
1964.00,0.0025
1963.00,0.0025
1962.00,0.0023
1961.00,0.0022
1960.00,0.0021
1959.00,0.0022
1958.00,0.0024
1957.00,0.0026
1956.00,0.0027
1955.00,0.0029
1954.00,0.0030
1953.00,0.0032
1952.00,0.0033
1951.00,0.0034
1950.00,0.0034
1949.00,0.0035
1948.00,0.0036
1947.00,0.0037
1946.00,0.0037
1945.00,0.0038
1944.00,0.0039
1943.00,0.0039
1942.00,0.0039
1941.00,0.0039
1940.00,0.0039
1939.00,0.0039
1938.00,0.0040
1937.00,0.0040
1936.00,0.0041
1935.00,0.0041
1934.00,0.0040
1933.00,0.0040
1932.00,0.0040
1931.00,0.0041
1930.00,0.0041
1929.00,0.0042
1928.00,0.0042
1927.00,0.0042
1926.00,0.0042
1925.00,0.0041
1924.00,0.0041
1923.00,0.0042
1922.00,0.0043
1921.00,0.0044
1920.00,0.0045
1919.00,0.0045
1918.00,0.0045
1917.00,0.0046
1916.00,0.0046
1915.00,0.0046
1914.00,0.0045
1913.00,0.0045
1912.00,0.0045
1911.00,0.0044
1910.00,0.0044
1909.00,0.0044
1908.00,0.0044
1907.00,0.0044
1906.00,0.0045
1905.00,0.0045
1904.00,0.0045
1903.00,0.0044
1902.00,0.0045
1901.00,0.0045
1900.00,0.0045
1899.00,0.0045
1898.00,0.0045
1897.00,0.0044
1896.00,0.0044
1895.00,0.0044
1894.00,0.0044
1893.00,0.0044
1892.00,0.0044
1891.00,0.0044
1890.00,0.0043
1889.00,0.0042
1888.00,0.0042
1887.00,0.0041
1886.00,0.0042
1885.00,0.0042
1884.00,0.0043
1883.00,0.0043
1882.00,0.0043
1881.00,0.0043
1880.00,0.0044
1879.00,0.0044
1878.00,0.0044
1877.00,0.0044
1876.00,0.0044
1875.00,0.0044
1874.00,0.0044
1873.00,0.0044
1872.00,0.0044
1871.00,0.0044
1870.00,0.0044
1869.00,0.0044
1868.00,0.0044
1867.00,0.0045
1866.00,0.0045
1865.00,0.0046
1864.00,0.0046
1863.00,0.0046
1862.00,0.0045
1861.00,0.0045
1860.00,0.0045
1859.00,0.0045
1858.00,0.0044
1857.00,0.0044
1856.00,0.0044
1855.00,0.0044
1854.00,0.0044
1853.00,0.0044
1852.00,0.0044
1851.00,0.0044
1850.00,0.0044
1849.00,0.0044
1848.00,0.0044
1847.00,0.0044
1846.00,0.0044
1845.00,0.0043
1844.00,0.0043
1843.00,0.0042
1842.00,0.0042
1841.00,0.0042
1840.00,0.0042
1839.00,0.0043
1838.00,0.0043
1837.00,0.0043
1836.00,0.0044
1835.00,0.0044
1834.00,0.0044
1833.00,0.0044
1832.00,0.0044
1831.00,0.0044
1830.00,0.0043
1829.00,0.0043
1828.00,0.0043
1827.00,0.0043
1826.00,0.0044
1825.00,0.0044
1824.00,0.0044
1823.00,0.0044
1822.00,0.0044
1821.00,0.0044
1820.00,0.0043
1819.00,0.0042
1818.00,0.0041
1817.00,0.0041
1816.00,0.0041
1815.00,0.0041
1814.00,0.0042
1813.00,0.0042
1812.00,0.0042
1811.00,0.0043
1810.00,0.0043
1809.00,0.0044
1808.00,0.0045
1807.00,0.0045
1806.00,0.0045
1805.00,0.0045
1804.00,0.0046
1803.00,0.0046
1802.00,0.0046
1801.00,0.0046
1800.00,0.0046
1799.00,0.0046
1798.00,0.0047
1797.00,0.0047
1796.00,0.0047
1795.00,0.0047
1794.00,0.0047
1793.00,0.0048
1792.00,0.0048
1791.00,0.0048
1790.00,0.0048
1789.00,0.0048
1788.00,0.0048
1787.00,0.0048
1786.00,0.0048
1785.00,0.0048
1784.00,0.0048
1783.00,0.0048
1782.00,0.0047
1781.00,0.0047
1780.00,0.0047
1779.00,0.0047
1778.00,0.0048
1777.00,0.0048
1776.00,0.0048
1775.00,0.0048
1774.00,0.0048
1773.00,0.0048
1772.00,0.0048
1771.00,0.0048
1770.00,0.0048
1769.00,0.0048
1768.00,0.0048
1767.00,0.0048
1766.00,0.0048
1765.00,0.0048
1764.00,0.0048
1763.00,0.0048
1762.00,0.0048
1761.00,0.0048
1760.00,0.0049
1759.00,0.0049
1758.00,0.0048
1757.00,0.0048
1756.00,0.0048
1755.00,0.0048
1754.00,0.0048
1753.00,0.0048
1752.00,0.0049
1751.00,0.0049
1750.00,0.0049
1749.00,0.0048
1748.00,0.0048
1747.00,0.0048
1746.00,0.0048
1745.00,0.0048
1744.00,0.0048
1743.00,0.0048
1742.00,0.0048
1741.00,0.0048
1740.00,0.0048
1739.00,0.0047
1738.00,0.0047
1737.00,0.0047
1736.00,0.0047
1735.00,0.0047
1734.00,0.0047
1733.00,0.0048
1732.00,0.0048
1731.00,0.0048
1730.00,0.0048
1729.00,0.0048
1728.00,0.0048
1727.00,0.0049
1726.00,0.0049
1725.00,0.0050
1724.00,0.0050
1723.00,0.0051
1722.00,0.0052
1721.00,0.0052
1720.00,0.0053
1719.00,0.0054
1718.00,0.0055
1717.00,0.0056
1716.00,0.0057
1715.00,0.0057
1714.00,0.0058
1713.00,0.0058
1712.00,0.0058
1711.00,0.0059
1710.00,0.0058
1709.00,0.0058
1708.00,0.0058
1707.00,0.0057
1706.00,0.0056
1705.00,0.0056
1704.00,0.0055
1703.00,0.0054
1702.00,0.0053
1701.00,0.0053
1700.00,0.0052
1699.00,0.0052
1698.00,0.0051
1697.00,0.0051
1696.00,0.0050
1695.00,0.0050
1694.00,0.0050
1693.00,0.0049
1692.00,0.0049
1691.00,0.0049
1690.00,0.0048
1689.00,0.0048
1688.00,0.0048
1687.00,0.0048
1686.00,0.0048
1685.00,0.0048
1684.00,0.0048
1683.00,0.0048
1682.00,0.0049
1681.00,0.0049
1680.00,0.0049
1679.00,0.0049
1678.00,0.0049
1677.00,0.0049
1676.00,0.0049
1675.00,0.0050
1674.00,0.0050
1673.00,0.0050
1672.00,0.0050
1671.00,0.0050
1670.00,0.0050
1669.00,0.0050
1668.00,0.0051
1667.00,0.0051
1666.00,0.0051
1665.00,0.0051
1664.00,0.0051
1663.00,0.0051
1662.00,0.0051
1661.00,0.0051
1660.00,0.0051
1659.00,0.0051
1658.00,0.0051
1657.00,0.0051
1656.00,0.0052
1655.00,0.0052
1654.00,0.0052
1653.00,0.0052
1652.00,0.0051
1651.00,0.0050
1650.00,0.0050
1649.00,0.0050
1648.00,0.0050
1647.00,0.0050
1646.00,0.0050
1645.00,0.0050
1644.00,0.0050
1643.00,0.0050
1642.00,0.0050
1641.00,0.0050
1640.00,0.0050
1639.00,0.0050
1638.00,0.0049
1637.00,0.0049
1636.00,0.0049
1635.00,0.0049
1634.00,0.0049
1633.00,0.0049
1632.00,0.0049
1631.00,0.0049
1630.00,0.0049
1629.00,0.0049
1628.00,0.0049
1627.00,0.0049
1626.00,0.0049
1625.00,0.0049
1624.00,0.0049
1623.00,0.0050
1622.00,0.0049
1621.00,0.0049
1620.00,0.0049
1619.00,0.0049
1618.00,0.0049
1617.00,0.0049
1616.00,0.0049
1615.00,0.0049
1614.00,0.0049
1613.00,0.0049
1612.00,0.0049
1611.00,0.0049
1610.00,0.0049
1609.00,0.0049
1608.00,0.0049
1607.00,0.0049
1606.00,0.0049
1605.00,0.0049
1604.00,0.0049
1603.00,0.0049
1602.00,0.0049
1601.00,0.0049
1600.00,0.0049
1599.00,0.0049
1598.00,0.0049
1597.00,0.0049
1596.00,0.0049
1595.00,0.0049
1594.00,0.0049
1593.00,0.0049
1592.00,0.0049
1591.00,0.0049
1590.00,0.0049
1589.00,0.0049
1588.00,0.0049
1587.00,0.0049
1586.00,0.0049
1585.00,0.0049
1584.00,0.0049
1583.00,0.0049
1582.00,0.0049
1581.00,0.0049
1580.00,0.0049
1579.00,0.0049
1578.00,0.0049
1577.00,0.0050
1576.00,0.0050
1575.00,0.0050
1574.00,0.0049
1573.00,0.0049
1572.00,0.0049
1571.00,0.0049
1570.00,0.0049
1569.00,0.0049
1568.00,0.0049
1567.00,0.0049
1566.00,0.0049
1565.00,0.0049
1564.00,0.0049
1563.00,0.0049
1562.00,0.0049
1561.00,0.0050
1560.00,0.0050
1559.00,0.0050
1558.00,0.0050
1557.00,0.0050
1556.00,0.0050
1555.00,0.0050
1554.00,0.0051
1553.00,0.0051
1552.00,0.0051
1551.00,0.0051
1550.00,0.0051
1549.00,0.0051
1548.00,0.0051
1547.00,0.0051
1546.00,0.0051
1545.00,0.0051
1544.00,0.0051
1543.00,0.0051
1542.00,0.0051
1541.00,0.0051
1540.00,0.0051
1539.00,0.0051
1538.00,0.0051
1537.00,0.0052
1536.00,0.0052
1535.00,0.0052
1534.00,0.0052
1533.00,0.0052
1532.00,0.0052
1531.00,0.0052
1530.00,0.0052
1529.00,0.0052
1528.00,0.0052
1527.00,0.0052
1526.00,0.0052
1525.00,0.0052
1524.00,0.0052
1523.00,0.0052
1522.00,0.0053
1521.00,0.0053
1520.00,0.0053
1519.00,0.0053
1518.00,0.0053
1517.00,0.0053
1516.00,0.0054
1515.00,0.0054
1514.00,0.0054
1513.00,0.0055
1512.00,0.0055
1511.00,0.0055
1510.00,0.0055
1509.00,0.0056
1508.00,0.0056
1507.00,0.0056
1506.00,0.0056
1505.00,0.0056
1504.00,0.0057
1503.00,0.0057
1502.00,0.0058
1501.00,0.0058
1500.00,0.0058
1499.00,0.0059
1498.00,0.0059
1497.00,0.0059
1496.00,0.0060
1495.00,0.0061
1494.00,0.0061
1493.00,0.0062
1492.00,0.0064
1491.00,0.0065
1490.00,0.0067
1489.00,0.0069
1488.00,0.0071
1487.00,0.0073
1486.00,0.0076
1485.00,0.0079
1484.00,0.0084
1483.00,0.0089
1482.00,0.0096
1481.00,0.0106
1480.00,0.0116
1479.00,0.0128
1478.00,0.0139
1477.00,0.0149
1476.00,0.0156
1475.00,0.0159
1474.00,0.0156
1473.00,0.0151
1472.00,0.0146
1471.00,0.0143
1470.00,0.0144
1469.00,0.0148
1468.00,0.0155
1467.00,0.0162
1466.00,0.0171
1465.00,0.0180
1464.00,0.0189
1463.00,0.0199
1462.00,0.0208
1461.00,0.0216
1460.00,0.0222
1459.00,0.0222
1458.00,0.0217
1457.00,0.0205
1456.00,0.0193
1455.00,0.0183
1454.00,0.0177
1453.00,0.0173
1452.00,0.0172
1451.00,0.0172
1450.00,0.0174
1449.00,0.0178
1448.00,0.0184
1447.00,0.0190
1446.00,0.0198
1445.00,0.0205
1444.00,0.0213
1443.00,0.0220
1442.00,0.0226
1441.00,0.0231
1440.00,0.0235
1439.00,0.0238
1438.00,0.0241
1437.00,0.0243
1436.00,0.0246
1435.00,0.0248
1434.00,0.0251
1433.00,0.0256
1432.00,0.0260
1431.00,0.0265
1430.00,0.0268
1429.00,0.0269
1428.00,0.0270
1427.00,0.0269
1426.00,0.0268
1425.00,0.0267
1424.00,0.0266
1423.00,0.0264
1422.00,0.0260
1421.00,0.0256
1420.00,0.0249
1419.00,0.0241
1418.00,0.0233
1417.00,0.0226
1416.00,0.0222
1415.00,0.0219
1414.00,0.0219
1413.00,0.0221
1412.00,0.0224
1411.00,0.0227
1410.00,0.0230
1409.00,0.0232
1408.00,0.0231
1407.00,0.0227
1406.00,0.0221
1405.00,0.0212
1404.00,0.0202
1403.00,0.0193
1402.00,0.0184
1401.00,0.0177
1400.00,0.0171
1399.00,0.0166
1398.00,0.0164
1397.00,0.0163
1396.00,0.0163
1395.00,0.0165
1394.00,0.0169
1393.00,0.0173
1392.00,0.0178
1391.00,0.0183
1390.00,0.0189
1389.00,0.0195
1388.00,0.0201
1387.00,0.0206
1386.00,0.0209
1385.00,0.0209
1384.00,0.0206
1383.00,0.0202
1382.00,0.0198
1381.00,0.0194
1380.00,0.0194
1379.00,0.0198
1378.00,0.0205
1377.00,0.0213
1376.00,0.0222
1375.00,0.0229
1374.00,0.0234
1373.00,0.0235
1372.00,0.0235
1371.00,0.0235
1370.00,0.0235
1369.00,0.0238
1368.00,0.0244
1367.00,0.0250
1366.00,0.0254
1365.00,0.0255
1364.00,0.0251
1363.00,0.0244
1362.00,0.0235
1361.00,0.0225
1360.00,0.0216
1359.00,0.0210
1358.00,0.0206
1357.00,0.0204
1356.00,0.0206
1355.00,0.0211
1354.00,0.0219
1353.00,0.0231
1352.00,0.0246
1351.00,0.0262
1350.00,0.0278
1349.00,0.0293
1348.00,0.0305
1347.00,0.0314
1346.00,0.0321
1345.00,0.0325
1344.00,0.0328
1343.00,0.0328
1342.00,0.0325
1341.00,0.0315
1340.00,0.0299
1339.00,0.0280
1338.00,0.0260
1337.00,0.0242
1336.00,0.0229
1335.00,0.0220
1334.00,0.0214
1333.00,0.0213
1332.00,0.0214
1331.00,0.0217
1330.00,0.0222
1329.00,0.0227
1328.00,0.0233
1327.00,0.0241
1326.00,0.0251
1325.00,0.0264
1324.00,0.0275
1323.00,0.0282
1322.00,0.0284
1321.00,0.0280
1320.00,0.0272
1319.00,0.0262
1318.00,0.0251
1317.00,0.0242
1316.00,0.0232
1315.00,0.0224
1314.00,0.0215
1313.00,0.0208
1312.00,0.0201
1311.00,0.0195
1310.00,0.0190
1309.00,0.0187
1308.00,0.0185
1307.00,0.0185
1306.00,0.0185
1305.00,0.0185
1304.00,0.0184
1303.00,0.0183
1302.00,0.0179
1301.00,0.0174
1300.00,0.0167
1299.00,0.0160
1298.00,0.0153
1297.00,0.0147
1296.00,0.0142
1295.00,0.0138
1294.00,0.0135
1293.00,0.0133
1292.00,0.0133
1291.00,0.0135
1290.00,0.0138
1289.00,0.0142
1288.00,0.0147
1287.00,0.0154
1286.00,0.0162
1285.00,0.0170
1284.00,0.0178
1283.00,0.0186
1282.00,0.0194
1281.00,0.0202
1280.00,0.0208
1279.00,0.0211
1278.00,0.0209
1277.00,0.0204
1276.00,0.0196
1275.00,0.0189
1274.00,0.0182
1273.00,0.0177
1272.00,0.0172
1271.00,0.0166
1270.00,0.0160
1269.00,0.0154
1268.00,0.0149
1267.00,0.0143
1266.00,0.0138
1265.00,0.0133
1264.00,0.0128
1263.00,0.0124
1262.00,0.0119
1261.00,0.0116
1260.00,0.0113
1259.00,0.0110
1258.00,0.0109
1257.00,0.0108
1256.00,0.0108
1255.00,0.0109
1254.00,0.0110
1253.00,0.0112
1252.00,0.0115
1251.00,0.0120
1250.00,0.0127
1249.00,0.0136
1248.00,0.0147
1247.00,0.0161
1246.00,0.0177
1245.00,0.0194
1244.00,0.0211
1243.00,0.0226
1242.00,0.0238
1241.00,0.0249
1240.00,0.0257
1239.00,0.0263
1238.00,0.0266
1237.00,0.0269
1236.00,0.0269
1235.00,0.0268
1234.00,0.0265
1233.00,0.0261
1232.00,0.0255
1231.00,0.0245
1230.00,0.0233
1229.00,0.0219
1228.00,0.0203
1227.00,0.0188
1226.00,0.0175
1225.00,0.0163
1224.00,0.0154
1223.00,0.0146
1222.00,0.0139
1221.00,0.0134
1220.00,0.0130
1219.00,0.0128
1218.00,0.0127
1217.00,0.0126
1216.00,0.0128
1215.00,0.0132
1214.00,0.0138
1213.00,0.0147
1212.00,0.0160
1211.00,0.0174
1210.00,0.0189
1209.00,0.0199
1208.00,0.0203
1207.00,0.0199
1206.00,0.0190
1205.00,0.0177
1204.00,0.0165
1203.00,0.0153
1202.00,0.0144
1201.00,0.0135
1200.00,0.0128
1199.00,0.0121
1198.00,0.0115
1197.00,0.0110
1196.00,0.0106
1195.00,0.0102
1194.00,0.0098
1193.00,0.0095
1192.00,0.0093
1191.00,0.0090
1190.00,0.0088
1189.00,0.0087
1188.00,0.0085
1187.00,0.0084
1186.00,0.0083
1185.00,0.0083
1184.00,0.0083
1183.00,0.0083
1182.00,0.0084
1181.00,0.0085
1180.00,0.0087
1179.00,0.0090
1178.00,0.0096
1177.00,0.0104
1176.00,0.0115
1175.00,0.0127
1174.00,0.0139
1173.00,0.0151
1172.00,0.0160
1171.00,0.0166
1170.00,0.0167
1169.00,0.0164
1168.00,0.0158
1167.00,0.0153
1166.00,0.0151
1165.00,0.0152
1164.00,0.0157
1163.00,0.0163
1162.00,0.0169
1161.00,0.0170
1160.00,0.0167
1159.00,0.0158
1158.00,0.0148
1157.00,0.0137
1156.00,0.0129
1155.00,0.0124
1154.00,0.0120
1153.00,0.0119
1152.00,0.0120
1151.00,0.0122
1150.00,0.0126
1149.00,0.0132
1148.00,0.0139
1147.00,0.0148
1146.00,0.0159
1145.00,0.0174
1144.00,0.0192
1143.00,0.0215
1142.00,0.0240
1141.00,0.0268
1140.00,0.0297
1139.00,0.0323
1138.00,0.0345
1137.00,0.0362
1136.00,0.0375
1135.00,0.0385
1134.00,0.0396
1133.00,0.0408
1132.00,0.0422
1131.00,0.0438
1130.00,0.0454
1129.00,0.0467
1128.00,0.0477
1127.00,0.0482
1126.00,0.0484
1125.00,0.0482
1124.00,0.0480
1123.00,0.0476
1122.00,0.0472
1121.00,0.0469
1120.00,0.0471
1119.00,0.0478
1118.00,0.0490
1117.00,0.0504
1116.00,0.0513
1115.00,0.0515
1114.00,0.0506
1113.00,0.0490
1112.00,0.0469
1111.00,0.0448
1110.00,0.0433
1109.00,0.0428
1108.00,0.0434
1107.00,0.0449
1106.00,0.0469
1105.00,0.0485
1104.00,0.0493
1103.00,0.0489
1102.00,0.0474
1101.00,0.0451
1100.00,0.0424
1099.00,0.0399
1098.00,0.0376
1097.00,0.0357
1096.00,0.0341
1095.00,0.0329
1094.00,0.0321
1093.00,0.0318
1092.00,0.0322
1091.00,0.0331
1090.00,0.0346
1089.00,0.0365
1088.00,0.0386
1087.00,0.0407
1086.00,0.0427
1085.00,0.0445
1084.00,0.0462
1083.00,0.0479
1082.00,0.0497
1081.00,0.0516
1080.00,0.0537
1079.00,0.0558
1078.00,0.0580
1077.00,0.0602
1076.00,0.0627
1075.00,0.0655
1074.00,0.0686
1073.00,0.0723
1072.00,0.0764
1071.00,0.0809
1070.00,0.0856
1069.00,0.0900
1068.00,0.0936
1067.00,0.0960
1066.00,0.0970
1065.00,0.0966
1064.00,0.0951
1063.00,0.0928
1062.00,0.0902
1061.00,0.0880
1060.00,0.0865
1059.00,0.0861
1058.00,0.0870
1057.00,0.0890
1056.00,0.0918
1055.00,0.0949
1054.00,0.0977
1053.00,0.1001
1052.00,0.1017
1051.00,0.1027
1050.00,0.1032
1049.00,0.1031
1048.00,0.1024
1047.00,0.1010
1046.00,0.0989
1045.00,0.0967
1044.00,0.0949
1043.00,0.0936
1042.00,0.0931
1041.00,0.0930
1040.00,0.0934
1039.00,0.0940
1038.00,0.0945
1037.00,0.0945
1036.00,0.0933
1035.00,0.0905
1034.00,0.0864
1033.00,0.0814
1032.00,0.0762
1031.00,0.0710
1030.00,0.0662
1029.00,0.0619
1028.00,0.0581
1027.00,0.0547
1026.00,0.0519
1025.00,0.0496
1024.00,0.0479
1023.00,0.0470
1022.00,0.0470
1021.00,0.0482
1020.00,0.0505
1019.00,0.0540
1018.00,0.0582
1017.00,0.0628
1016.00,0.0673
1015.00,0.0711
1014.00,0.0738
1013.00,0.0753
1012.00,0.0756
1011.00,0.0751
1010.00,0.0744
1009.00,0.0741
1008.00,0.0748
1007.00,0.0764
1006.00,0.0786
1005.00,0.0806
1004.00,0.0817
1003.00,0.0815
1002.00,0.0801
1001.00,0.0780
1000.00,0.0757
999.00,0.0738
998.00,0.0726
997.00,0.0728
996.00,0.0747
995.00,0.0784
994.00,0.0839
993.00,0.0907
992.00,0.0977
991.00,0.1041
990.00,0.1088
989.00,0.1113
988.00,0.1116
987.00,0.1102
986.00,0.1074
985.00,0.1038
984.00,0.0996
983.00,0.0950
982.00,0.0901
981.00,0.0852
980.00,0.0803
979.00,0.0754
978.00,0.0707
977.00,0.0663
976.00,0.0622
975.00,0.0585
974.00,0.0551
973.00,0.0520
972.00,0.0491
971.00,0.0466
970.00,0.0443
969.00,0.0422
968.00,0.0402
967.00,0.0385
966.00,0.0368
965.00,0.0354
964.00,0.0341
963.00,0.0329
962.00,0.0318
961.00,0.0308
960.00,0.0298
959.00,0.0290
958.00,0.0282
957.00,0.0276
956.00,0.0271
955.00,0.0267
954.00,0.0264
953.00,0.0263
952.00,0.0265
951.00,0.0270
950.00,0.0279
949.00,0.0293
948.00,0.0316
947.00,0.0346
946.00,0.0385
945.00,0.0427
944.00,0.0466
943.00,0.0493
942.00,0.0503
941.00,0.0494
940.00,0.0472
939.00,0.0443
938.00,0.0411
937.00,0.0382
936.00,0.0357
935.00,0.0337
934.00,0.0321
933.00,0.0310
932.00,0.0303
931.00,0.0301
930.00,0.0304
929.00,0.0313
928.00,0.0331
927.00,0.0358
926.00,0.0397
925.00,0.0447
924.00,0.0503
923.00,0.0560
922.00,0.0609
921.00,0.0644
920.00,0.0663
919.00,0.0672
918.00,0.0679
917.00,0.0691
916.00,0.0708
915.00,0.0728
914.00,0.0749
913.00,0.0775
912.00,0.0812
911.00,0.0859
910.00,0.0908
909.00,0.0946
908.00,0.0960
907.00,0.0947
906.00,0.0912
905.00,0.0862
904.00,0.0806
903.00,0.0749
902.00,0.0694
901.00,0.0644
900.00,0.0599
899.00,0.0560
898.00,0.0525
897.00,0.0494
896.00,0.0466
895.00,0.0442
894.00,0.0420
893.00,0.0400
892.00,0.0382
891.00,0.0366
890.00,0.0352
889.00,0.0339
888.00,0.0327
887.00,0.0317
886.00,0.0308
885.00,0.0300
884.00,0.0293
883.00,0.0288
882.00,0.0284
881.00,0.0281
880.00,0.0281
879.00,0.0282
878.00,0.0286
877.00,0.0293
876.00,0.0305
875.00,0.0322
874.00,0.0345
873.00,0.0378
872.00,0.0422
871.00,0.0475
870.00,0.0531
869.00,0.0583
868.00,0.0621
867.00,0.0638
866.00,0.0633
865.00,0.0610
864.00,0.0576
863.00,0.0538
862.00,0.0501
861.00,0.0469
860.00,0.0441
859.00,0.0419
858.00,0.0403
857.00,0.0395
856.00,0.0395
855.00,0.0407
854.00,0.0431
853.00,0.0466
852.00,0.0509
851.00,0.0551
850.00,0.0581
849.00,0.0593
848.00,0.0583
847.00,0.0556
846.00,0.0519
845.00,0.0481
844.00,0.0445
843.00,0.0415
842.00,0.0390
841.00,0.0369
840.00,0.0352
839.00,0.0337
838.00,0.0325
837.00,0.0313
836.00,0.0304
835.00,0.0295
834.00,0.0288
833.00,0.0281
832.00,0.0275
831.00,0.0269
830.00,0.0264
829.00,0.0259
828.00,0.0255
827.00,0.0251
826.00,0.0247
825.00,0.0243
824.00,0.0240
823.00,0.0237
822.00,0.0234
821.00,0.0231
820.00,0.0229
819.00,0.0227
818.00,0.0225
817.00,0.0223
816.00,0.0221
815.00,0.0219
814.00,0.0217
813.00,0.0215
812.00,0.0214
811.00,0.0213
810.00,0.0212
809.00,0.0211
808.00,0.0210
807.00,0.0209
806.00,0.0208
805.00,0.0207
804.00,0.0206
803.00,0.0206
802.00,0.0205
801.00,0.0205
800.00,0.0205
799.00,0.0205
798.00,0.0205
797.00,0.0205
796.00,0.0205
795.00,0.0205
794.00,0.0206
793.00,0.0206
792.00,0.0208
791.00,0.0209
790.00,0.0210
789.00,0.0211
788.00,0.0212
787.00,0.0214
786.00,0.0215
785.00,0.0217
784.00,0.0218
783.00,0.0218
782.00,0.0218
781.00,0.0217
780.00,0.0217
779.00,0.0217
778.00,0.0217
777.00,0.0217
776.00,0.0218
775.00,0.0218
774.00,0.0219
773.00,0.0220
772.00,0.0221
771.00,0.0222
770.00,0.0223
769.00,0.0225
768.00,0.0226
767.00,0.0228
766.00,0.0230
765.00,0.0232
764.00,0.0233
763.00,0.0235
762.00,0.0237
761.00,0.0240
760.00,0.0243
759.00,0.0246
758.00,0.0248
757.00,0.0251
756.00,0.0254
755.00,0.0256
754.00,0.0259
753.00,0.0262
752.00,0.0266
751.00,0.0269
750.00,0.0272
749.00,0.0276
748.00,0.0279
747.00,0.0281
746.00,0.0284
745.00,0.0287
744.00,0.0291
743.00,0.0296
742.00,0.0302
741.00,0.0308
740.00,0.0317
739.00,0.0329
738.00,0.0345
737.00,0.0364
736.00,0.0384
735.00,0.0402
734.00,0.0415
733.00,0.0424
732.00,0.0428
731.00,0.0429
730.00,0.0427
729.00,0.0424
728.00,0.0420
727.00,0.0416
726.00,0.0412
725.00,0.0408
724.00,0.0405
723.00,0.0401
722.00,0.0396
721.00,0.0392
720.00,0.0387
719.00,0.0383
718.00,0.0380
717.00,0.0377
716.00,0.0375
715.00,0.0373
714.00,0.0370
713.00,0.0368
712.00,0.0366
711.00,0.0366
710.00,0.0366
709.00,0.0367
708.00,0.0369
707.00,0.0373
706.00,0.0377
705.00,0.0384
704.00,0.0392
703.00,0.0401
702.00,0.0412
701.00,0.0423
700.00,0.0435
699.00,0.0447
698.00,0.0458
697.00,0.0468
696.00,0.0477
695.00,0.0485
694.00,0.0491
693.00,0.0496
692.00,0.0502
691.00,0.0509
690.00,0.0517
689.00,0.0525
688.00,0.0534
687.00,0.0544
686.00,0.0554
685.00,0.0563
684.00,0.0572
683.00,0.0581
682.00,0.0587
681.00,0.0592
680.00,0.0593
679.00,0.0591
678.00,0.0586
677.00,0.0579
676.00,0.0570
675.00,0.0561
674.00,0.0552
673.00,0.0543
672.00,0.0534
671.00,0.0527
670.00,0.0521
669.00,0.0516
668.00,0.0510
667.00,0.0505
666.00,0.0500
665.00,0.0496
664.00,0.0492
663.00,0.0489
662.00,0.0486
661.00,0.0484
660.00,0.0482
659.00,0.0480
658.00,0.0480
657.00,0.0480
656.00,0.0482
655.00,0.0484
654.00,0.0486
653.00,0.0488
652.00,0.0492
651.00,0.0498
650.00,0.0504
649.00,0.0512
648.00,0.0522
647.00,0.0533
646.00,0.0545
645.00,0.0558
644.00,0.0571
643.00,0.0583
642.00,0.0592
641.00,0.0596
640.00,0.0596
639.00,0.0593
638.00,0.0585
637.00,0.0575
636.00,0.0565
635.00,0.0556
634.00,0.0548
633.00,0.0542
632.00,0.0538
631.00,0.0535
630.00,0.0535
629.00,0.0537
628.00,0.0540
627.00,0.0544
626.00,0.0548
625.00,0.0551
624.00,0.0555
623.00,0.0559
622.00,0.0563
621.00,0.0568
620.00,0.0573
619.00,0.0578
618.00,0.0583
617.00,0.0587
616.00,0.0592
615.00,0.0597
614.00,0.0602
613.00,0.0607
612.00,0.0611
611.00,0.0617
610.00,0.0623
609.00,0.0630
608.00,0.0638
607.00,0.0647
606.00,0.0654
605.00,0.0661
604.00,0.0668
603.00,0.0676
602.00,0.0685
601.00,0.0694
600.00,0.0704
599.00,0.0713
598.00,0.0721
597.00,0.0729
596.00,0.0738
595.00,0.0745
594.00,0.0753
593.00,0.0760
592.00,0.0767
591.00,0.0774
590.00,0.0781
589.00,0.0789
588.00,0.0800
587.00,0.0813
586.00,0.0829
585.00,0.0847
584.00,0.0865
583.00,0.0880
582.00,0.0888
581.00,0.0891
580.00,0.0889
579.00,0.0885
578.00,0.0879
577.00,0.0873
576.00,0.0868
575.00,0.0863
574.00,0.0859
573.00,0.0855
572.00,0.0853
571.00,0.0851
570.00,0.0850
569.00,0.0849
568.00,0.0850
567.00,0.0851
566.00,0.0852
565.00,0.0854
564.00,0.0858
563.00,0.0863
562.00,0.0869
561.00,0.0876
560.00,0.0884
559.00,0.0892
558.00,0.0901
557.00,0.0912
556.00,0.0930
555.00,0.0954
554.00,0.0982
553.00,0.1012
552.00,0.1040
551.00,0.1061
550.00,0.1072
549.00,0.1072
548.00,0.1062
547.00,0.1043
546.00,0.1016
545.00,0.0987
544.00,0.0959
543.00,0.0936
542.00,0.0925
541.00,0.0932
540.00,0.0960
539.00,0.1002
538.00,0.1047
537.00,0.1079
536.00,0.1093
535.00,0.1088
534.00,0.1072
533.00,0.1052
532.00,0.1036
531.00,0.1021
530.00,0.1007
529.00,0.0996
528.00,0.0990
527.00,0.0991
526.00,0.1002
525.00,0.1022
524.00,0.1048
523.00,0.1072
522.00,0.1086
521.00,0.1088
520.00,0.1078
519.00,0.1059
518.00,0.1035
517.00,0.1010
516.00,0.0988
515.00,0.0967
514.00,0.0947
513.00,0.0929
512.00,0.0912
511.00,0.0897
510.00,0.0883
509.00,0.0871
508.00,0.0862
507.00,0.0853
506.00,0.0844
505.00,0.0838
504.00,0.0834
503.00,0.0833
502.00,0.0830
501.00,0.0826
500.00,0.0821
499.00,0.0815
498.00,0.0810
497.00,0.0803
496.00,0.0794
495.00,0.0782
494.00,0.0767
493.00,0.0752
492.00,0.0737
491.00,0.0722
490.00,0.0707
489.00,0.0694
488.00,0.0682
487.00,0.0669
486.00,0.0654
485.00,0.0641
484.00,0.0631
483.00,0.0623
482.00,0.0619
481.00,0.0618
480.00,0.0620
479.00,0.0628
478.00,0.0643
477.00,0.0672
476.00,0.0715
475.00,0.0769
474.00,0.0828
473.00,0.0882
472.00,0.0920
471.00,0.0937
470.00,0.0931
469.00,0.0911
468.00,0.0886
467.00,0.0859
466.00,0.0832
465.00,0.0807
464.00,0.0787
463.00,0.0768
462.00,0.0749
461.00,0.0731
460.00,0.0714
459.00,0.0699
458.00,0.0685
457.00,0.0673
456.00,0.0663
455.00,0.0654
454.00,0.0645
453.00,0.0635
452.00,0.0626
451.00,0.0617
450.00,0.0612
449.00,0.0610
448.00,0.0613
447.00,0.0618
446.00,0.0623
445.00,0.0628
444.00,0.0635
443.00,0.0642
442.00,0.0647
441.00,0.0650
440.00,0.0653
439.00,0.0653
438.00,0.0648
437.00,0.0639
436.00,0.0629
435.00,0.0620
434.00,0.0612
433.00,0.0604
432.00,0.0596
431.00,0.0587
430.00,0.0580
429.00,0.0574
428.00,0.0572
427.00,0.0570
426.00,0.0569
425.00,0.0572
424.00,0.0578
423.00,0.0584
422.00,0.0590
421.00,0.0597
420.00,0.0609
419.00,0.0625
418.00,0.0637
417.00,0.0641
416.00,0.0641
415.00,0.0640
414.00,0.0641
413.00,0.0647
412.00,0.0659
411.00,0.0676
410.00,0.0696
409.00,0.0722
408.00,0.0760
407.00,0.0809
406.00,0.0863
405.00,0.0916
404.00,0.0964
403.00,0.1004
402.00,0.1032
401.00,0.1049
400.00,0.1060
