Created as New Dataset,Sample 848 By YargerLab Date Saturday, April 18 2026
cm-1,A
4000.00,0.0130
3999.00,0.0130
3998.00,0.0130
3997.00,0.0130
3996.00,0.0130
3995.00,0.0130
3994.00,0.0131
3993.00,0.0131
3992.00,0.0132
3991.00,0.0132
3990.00,0.0133
3989.00,0.0133
3988.00,0.0133
3987.00,0.0133
3986.00,0.0132
3985.00,0.0132
3984.00,0.0132
3983.00,0.0132
3982.00,0.0131
3981.00,0.0131
3980.00,0.0131
3979.00,0.0131
3978.00,0.0131
3977.00,0.0131
3976.00,0.0130
3975.00,0.0130
3974.00,0.0130
3973.00,0.0130
3972.00,0.0130
3971.00,0.0129
3970.00,0.0129
3969.00,0.0129
3968.00,0.0129
3967.00,0.0129
3966.00,0.0128
3965.00,0.0128
3964.00,0.0128
3963.00,0.0128
3962.00,0.0128
3961.00,0.0128
3960.00,0.0128
3959.00,0.0128
3958.00,0.0128
3957.00,0.0129
3956.00,0.0128
3955.00,0.0128
3954.00,0.0128
3953.00,0.0128
3952.00,0.0128
3951.00,0.0128
3950.00,0.0128
3949.00,0.0128
3948.00,0.0128
3947.00,0.0128
3946.00,0.0128
3945.00,0.0128
3944.00,0.0128
3943.00,0.0128
3942.00,0.0128
3941.00,0.0128
3940.00,0.0128
3939.00,0.0128
3938.00,0.0128
3937.00,0.0128
3936.00,0.0128
3935.00,0.0128
3934.00,0.0128
3933.00,0.0128
3932.00,0.0128
3931.00,0.0127
3930.00,0.0127
3929.00,0.0127
3928.00,0.0127
3927.00,0.0127
3926.00,0.0127
3925.00,0.0127
3924.00,0.0127
3923.00,0.0127
3922.00,0.0127
3921.00,0.0127
3920.00,0.0127
3919.00,0.0126
3918.00,0.0126
3917.00,0.0126
3916.00,0.0126
3915.00,0.0126
3914.00,0.0126
3913.00,0.0126
3912.00,0.0126
3911.00,0.0126
3910.00,0.0126
3909.00,0.0126
3908.00,0.0127
3907.00,0.0127
3906.00,0.0127
3905.00,0.0127
3904.00,0.0127
3903.00,0.0127
3902.00,0.0127
3901.00,0.0127
3900.00,0.0127
3899.00,0.0127
3898.00,0.0126
3897.00,0.0126
3896.00,0.0126
3895.00,0.0126
3894.00,0.0126
3893.00,0.0126
3892.00,0.0126
3891.00,0.0126
3890.00,0.0126
3889.00,0.0126
3888.00,0.0126
3887.00,0.0126
3886.00,0.0126
3885.00,0.0126
3884.00,0.0126
3883.00,0.0126
3882.00,0.0126
3881.00,0.0126
3880.00,0.0126
3879.00,0.0125
3878.00,0.0125
3877.00,0.0125
3876.00,0.0125
3875.00,0.0125
3874.00,0.0125
3873.00,0.0125
3872.00,0.0125
3871.00,0.0125
3870.00,0.0125
3869.00,0.0125
3868.00,0.0125
3867.00,0.0125
3866.00,0.0125
3865.00,0.0125
3864.00,0.0125
3863.00,0.0125
3862.00,0.0125
3861.00,0.0125
3860.00,0.0125
3859.00,0.0125
3858.00,0.0124
3857.00,0.0124
3856.00,0.0124
3855.00,0.0124
3854.00,0.0125
3853.00,0.0126
3852.00,0.0126
3851.00,0.0127
3850.00,0.0127
3849.00,0.0127
3848.00,0.0127
3847.00,0.0126
3846.00,0.0126
3845.00,0.0126
3844.00,0.0126
3843.00,0.0125
3842.00,0.0125
3841.00,0.0125
3840.00,0.0125
3839.00,0.0125
3838.00,0.0125
3837.00,0.0125
3836.00,0.0125
3835.00,0.0125
3834.00,0.0125
3833.00,0.0125
3832.00,0.0125
3831.00,0.0125
3830.00,0.0125
3829.00,0.0125
3828.00,0.0124
3827.00,0.0124
3826.00,0.0124
3825.00,0.0123
3824.00,0.0123
3823.00,0.0123
3822.00,0.0123
3821.00,0.0124
3820.00,0.0124
3819.00,0.0124
3818.00,0.0124
3817.00,0.0124
3816.00,0.0124
3815.00,0.0123
3814.00,0.0123
3813.00,0.0123
3812.00,0.0123
3811.00,0.0123
3810.00,0.0123
3809.00,0.0123
3808.00,0.0123
3807.00,0.0123
3806.00,0.0123
3805.00,0.0123
3804.00,0.0123
3803.00,0.0124
3802.00,0.0124
3801.00,0.0124
3800.00,0.0124
3799.00,0.0124
3798.00,0.0125
3797.00,0.0125
3796.00,0.0124
3795.00,0.0124
3794.00,0.0124
3793.00,0.0124
3792.00,0.0124
3791.00,0.0123
3790.00,0.0123
3789.00,0.0123
3788.00,0.0122
3787.00,0.0122
3786.00,0.0122
3785.00,0.0123
3784.00,0.0123
3783.00,0.0122
3782.00,0.0122
3781.00,0.0122
3780.00,0.0122
3779.00,0.0122
3778.00,0.0122
3777.00,0.0121
3776.00,0.0121
3775.00,0.0121
3774.00,0.0121
3773.00,0.0121
3772.00,0.0121
3771.00,0.0121
3770.00,0.0121
3769.00,0.0121
3768.00,0.0121
3767.00,0.0121
3766.00,0.0121
3765.00,0.0121
3764.00,0.0120
3763.00,0.0120
3762.00,0.0120
3761.00,0.0120
3760.00,0.0120
3759.00,0.0120
3758.00,0.0120
3757.00,0.0120
3756.00,0.0119
3755.00,0.0119
3754.00,0.0118
3753.00,0.0118
3752.00,0.0118
3751.00,0.0118
3750.00,0.0119
3749.00,0.0119
3748.00,0.0119
3747.00,0.0119
3746.00,0.0119
3745.00,0.0119
3744.00,0.0119
3743.00,0.0119
3742.00,0.0118
3741.00,0.0118
3740.00,0.0118
3739.00,0.0117
3738.00,0.0117
3737.00,0.0117
3736.00,0.0117
3735.00,0.0117
3734.00,0.0117
3733.00,0.0117
3732.00,0.0116
3731.00,0.0116
3730.00,0.0116
3729.00,0.0116
3728.00,0.0116
3727.00,0.0116
3726.00,0.0116
3725.00,0.0115
3724.00,0.0115
3723.00,0.0115
3722.00,0.0115
3721.00,0.0115
3720.00,0.0115
3719.00,0.0115
3718.00,0.0115
3717.00,0.0115
3716.00,0.0115
3715.00,0.0116
3714.00,0.0116
3713.00,0.0116
3712.00,0.0116
3711.00,0.0116
3710.00,0.0116
3709.00,0.0116
3708.00,0.0116
3707.00,0.0115
3706.00,0.0115
3705.00,0.0115
3704.00,0.0114
3703.00,0.0114
3702.00,0.0114
3701.00,0.0114
3700.00,0.0113
3699.00,0.0113
3698.00,0.0114
3697.00,0.0114
3696.00,0.0114
3695.00,0.0114
3694.00,0.0114
3693.00,0.0114
3692.00,0.0113
3691.00,0.0113
3690.00,0.0113
3689.00,0.0113
3688.00,0.0113
3687.00,0.0113
3686.00,0.0113
3685.00,0.0114
3684.00,0.0114
3683.00,0.0113
3682.00,0.0113
3681.00,0.0113
3680.00,0.0113
3679.00,0.0113
3678.00,0.0113
3677.00,0.0113
3676.00,0.0113
3675.00,0.0114
3674.00,0.0114
3673.00,0.0114
3672.00,0.0114
3671.00,0.0114
3670.00,0.0114
3669.00,0.0113
3668.00,0.0113
3667.00,0.0113
3666.00,0.0113
3665.00,0.0113
3664.00,0.0113
3663.00,0.0113
3662.00,0.0112
3661.00,0.0112
3660.00,0.0112
3659.00,0.0112
3658.00,0.0113
3657.00,0.0113
3656.00,0.0113
3655.00,0.0113
3654.00,0.0114
3653.00,0.0114
3652.00,0.0114
3651.00,0.0115
3650.00,0.0115
3649.00,0.0115
3648.00,0.0115
3647.00,0.0115
3646.00,0.0115
3645.00,0.0115
3644.00,0.0115
3643.00,0.0114
3642.00,0.0114
3641.00,0.0114
3640.00,0.0113
3639.00,0.0113
3638.00,0.0113
3637.00,0.0113
3636.00,0.0114
3635.00,0.0114
3634.00,0.0114
3633.00,0.0114
3632.00,0.0114
3631.00,0.0114
3630.00,0.0114
3629.00,0.0114
3628.00,0.0114
3627.00,0.0114
3626.00,0.0114
3625.00,0.0114
3624.00,0.0114
3623.00,0.0114
3622.00,0.0114
3621.00,0.0114
3620.00,0.0114
3619.00,0.0113
3618.00,0.0113
3617.00,0.0113
3616.00,0.0113
3615.00,0.0114
3614.00,0.0114
3613.00,0.0114
3612.00,0.0114
3611.00,0.0114
3610.00,0.0114
3609.00,0.0114
3608.00,0.0114
3607.00,0.0114
3606.00,0.0114
3605.00,0.0114
3604.00,0.0113
3603.00,0.0113
3602.00,0.0113
3601.00,0.0113
3600.00,0.0113
3599.00,0.0112
3598.00,0.0112
3597.00,0.0112
3596.00,0.0112
3595.00,0.0112
3594.00,0.0112
3593.00,0.0111
3592.00,0.0111
3591.00,0.0112
3590.00,0.0112
3589.00,0.0112
3588.00,0.0112
3587.00,0.0112
3586.00,0.0112
3585.00,0.0112
3584.00,0.0112
3583.00,0.0112
3582.00,0.0112
3581.00,0.0112
3580.00,0.0112
3579.00,0.0112
3578.00,0.0112
3577.00,0.0112
3576.00,0.0112
3575.00,0.0113
3574.00,0.0113
3573.00,0.0113
3572.00,0.0113
3571.00,0.0113
3570.00,0.0114
3569.00,0.0114
3568.00,0.0114
3567.00,0.0114
3566.00,0.0114
3565.00,0.0114
3564.00,0.0114
3563.00,0.0114
3562.00,0.0114
3561.00,0.0114
3560.00,0.0114
3559.00,0.0114
3558.00,0.0114
3557.00,0.0114
3556.00,0.0114
3555.00,0.0114
3554.00,0.0114
3553.00,0.0114
3552.00,0.0114
3551.00,0.0114
3550.00,0.0114
3549.00,0.0114
3548.00,0.0114
3547.00,0.0114
3546.00,0.0114
3545.00,0.0114
3544.00,0.0114
3543.00,0.0114
3542.00,0.0114
3541.00,0.0114
3540.00,0.0115
3539.00,0.0115
3538.00,0.0115
3537.00,0.0115
3536.00,0.0115
3535.00,0.0116
3534.00,0.0116
3533.00,0.0116
3532.00,0.0116
3531.00,0.0116
3530.00,0.0116
3529.00,0.0116
3528.00,0.0116
3527.00,0.0116
3526.00,0.0116
3525.00,0.0116
3524.00,0.0116
3523.00,0.0116
3522.00,0.0116
3521.00,0.0117
3520.00,0.0117
3519.00,0.0117
3518.00,0.0117
3517.00,0.0117
3516.00,0.0117
3515.00,0.0117
3514.00,0.0117
3513.00,0.0117
3512.00,0.0117
3511.00,0.0117
3510.00,0.0117
3509.00,0.0117
3508.00,0.0118
3507.00,0.0118
3506.00,0.0118
3505.00,0.0118
3504.00,0.0118
3503.00,0.0118
3502.00,0.0118
3501.00,0.0118
3500.00,0.0118
3499.00,0.0118
3498.00,0.0118
3497.00,0.0119
3496.00,0.0119
3495.00,0.0119
3494.00,0.0120
3493.00,0.0120
3492.00,0.0120
3491.00,0.0120
3490.00,0.0120
3489.00,0.0120
3488.00,0.0120
3487.00,0.0120
3486.00,0.0120
3485.00,0.0120
3484.00,0.0121
3483.00,0.0121
3482.00,0.0121
3481.00,0.0121
3480.00,0.0121
3479.00,0.0121
3478.00,0.0122
3477.00,0.0122
3476.00,0.0123
3475.00,0.0123
3474.00,0.0123
3473.00,0.0123
3472.00,0.0123
3471.00,0.0123
3470.00,0.0122
3469.00,0.0122
3468.00,0.0123
3467.00,0.0123
3466.00,0.0124
3465.00,0.0125
3464.00,0.0125
3463.00,0.0126
3462.00,0.0126
3461.00,0.0126
3460.00,0.0126
3459.00,0.0127
3458.00,0.0127
3457.00,0.0128
3456.00,0.0129
3455.00,0.0129
3454.00,0.0129
3453.00,0.0129
3452.00,0.0130
3451.00,0.0130
3450.00,0.0130
3449.00,0.0131
3448.00,0.0131
3447.00,0.0132
3446.00,0.0132
3445.00,0.0133
3444.00,0.0134
3443.00,0.0134
3442.00,0.0135
3441.00,0.0135
3440.00,0.0134
3439.00,0.0134
3438.00,0.0133
3437.00,0.0133
3436.00,0.0134
3435.00,0.0134
3434.00,0.0136
3433.00,0.0137
3432.00,0.0137
3431.00,0.0138
3430.00,0.0139
3429.00,0.0140
3428.00,0.0141
3427.00,0.0143
3426.00,0.0144
3425.00,0.0145
3424.00,0.0145
3423.00,0.0146
3422.00,0.0147
3421.00,0.0147
3420.00,0.0148
3419.00,0.0148
3418.00,0.0149
3417.00,0.0149
3416.00,0.0149
3415.00,0.0149
3414.00,0.0149
3413.00,0.0149
3412.00,0.0150
3411.00,0.0150
3410.00,0.0151
3409.00,0.0152
3408.00,0.0153
3407.00,0.0154
3406.00,0.0155
3405.00,0.0154
3404.00,0.0153
3403.00,0.0152
3402.00,0.0150
3401.00,0.0151
3400.00,0.0152
3399.00,0.0155
3398.00,0.0157
3397.00,0.0159
3396.00,0.0160
3395.00,0.0159
3394.00,0.0159
3393.00,0.0158
3392.00,0.0159
3391.00,0.0160
3390.00,0.0162
3389.00,0.0165
3388.00,0.0167
3387.00,0.0168
3386.00,0.0169
3385.00,0.0169
3384.00,0.0170
3383.00,0.0171
3382.00,0.0171
3381.00,0.0172
3380.00,0.0173
3379.00,0.0173
3378.00,0.0174
3377.00,0.0175
3376.00,0.0176
3375.00,0.0177
3374.00,0.0177
3373.00,0.0177
3372.00,0.0176
3371.00,0.0175
3370.00,0.0175
3369.00,0.0176
3368.00,0.0177
3367.00,0.0180
3366.00,0.0182
3365.00,0.0184
3364.00,0.0186
3363.00,0.0187
3362.00,0.0188
3361.00,0.0188
3360.00,0.0190
3359.00,0.0191
3358.00,0.0193
3357.00,0.0194
3356.00,0.0195
3355.00,0.0196
3354.00,0.0196
3353.00,0.0195
3352.00,0.0195
3351.00,0.0195
3350.00,0.0196
3349.00,0.0199
3348.00,0.0201
3347.00,0.0202
3346.00,0.0203
3345.00,0.0203
3344.00,0.0203
3343.00,0.0204
3342.00,0.0204
3341.00,0.0205
3340.00,0.0205
3339.00,0.0206
3338.00,0.0208
3337.00,0.0210
3336.00,0.0212
3335.00,0.0214
3334.00,0.0216
3333.00,0.0217
3332.00,0.0218
3331.00,0.0220
3330.00,0.0220
3329.00,0.0221
3328.00,0.0220
3327.00,0.0220
3326.00,0.0221
3325.00,0.0222
3324.00,0.0225
3323.00,0.0227
3322.00,0.0229
3321.00,0.0230
3320.00,0.0231
3319.00,0.0233
3318.00,0.0234
3317.00,0.0235
3316.00,0.0236
3315.00,0.0237
3314.00,0.0238
3313.00,0.0238
3312.00,0.0239
3311.00,0.0238
3310.00,0.0238
3309.00,0.0238
3308.00,0.0238
3307.00,0.0238
3306.00,0.0240
3305.00,0.0243
3304.00,0.0247
3303.00,0.0250
3302.00,0.0253
3301.00,0.0255
3300.00,0.0256
3299.00,0.0257
3298.00,0.0257
3297.00,0.0258
3296.00,0.0258
3295.00,0.0259
3294.00,0.0260
3293.00,0.0262
3292.00,0.0264
3291.00,0.0267
3290.00,0.0270
3289.00,0.0272
3288.00,0.0275
3287.00,0.0277
3286.00,0.0279
3285.00,0.0281
3284.00,0.0282
3283.00,0.0284
3282.00,0.0285
3281.00,0.0287
3280.00,0.0289
3279.00,0.0291
3278.00,0.0292
3277.00,0.0294
3276.00,0.0295
3275.00,0.0296
3274.00,0.0296
3273.00,0.0297
3272.00,0.0298
3271.00,0.0300
3270.00,0.0303
3269.00,0.0307
3268.00,0.0310
3267.00,0.0313
3266.00,0.0316
3265.00,0.0318
3264.00,0.0320
3263.00,0.0322
3262.00,0.0324
3261.00,0.0325
3260.00,0.0327
3259.00,0.0328
3258.00,0.0329
3257.00,0.0330
3256.00,0.0332
3255.00,0.0334
3254.00,0.0336
3253.00,0.0338
3252.00,0.0340
3251.00,0.0342
3250.00,0.0343
3249.00,0.0344
3248.00,0.0345
3247.00,0.0346
3246.00,0.0349
3245.00,0.0351
3244.00,0.0354
3243.00,0.0356
3242.00,0.0359
3241.00,0.0361
3240.00,0.0363
3239.00,0.0364
3238.00,0.0366
3237.00,0.0367
3236.00,0.0368
3235.00,0.0369
3234.00,0.0371
3233.00,0.0374
3232.00,0.0377
3231.00,0.0380
3230.00,0.0382
3229.00,0.0385
3228.00,0.0388
3227.00,0.0390
3226.00,0.0392
3225.00,0.0395
3224.00,0.0397
3223.00,0.0399
3222.00,0.0401
3221.00,0.0404
3220.00,0.0406
3219.00,0.0408
3218.00,0.0411
3217.00,0.0413
3216.00,0.0415
3215.00,0.0418
3214.00,0.0420
3213.00,0.0423
3212.00,0.0425
3211.00,0.0427
3210.00,0.0430
3209.00,0.0432
3208.00,0.0434
3207.00,0.0436
3206.00,0.0439
3205.00,0.0441
3204.00,0.0444
3203.00,0.0446
3202.00,0.0449
3201.00,0.0451
3200.00,0.0454
3199.00,0.0457
3198.00,0.0459
3197.00,0.0462
3196.00,0.0465
3195.00,0.0467
3194.00,0.0470
3193.00,0.0472
3192.00,0.0475
3191.00,0.0478
3190.00,0.0481
3189.00,0.0484
3188.00,0.0487
3187.00,0.0489
3186.00,0.0492
3185.00,0.0495
3184.00,0.0498
3183.00,0.0500
3182.00,0.0502
3181.00,0.0504
3180.00,0.0507
3179.00,0.0509
3178.00,0.0512
3177.00,0.0514
3176.00,0.0517
3175.00,0.0519
3174.00,0.0522
3173.00,0.0524
3172.00,0.0527
3171.00,0.0530
3170.00,0.0533
3169.00,0.0535
3168.00,0.0538
3167.00,0.0540
3166.00,0.0542
3165.00,0.0545
3164.00,0.0547
3163.00,0.0550
3162.00,0.0552
3161.00,0.0555
3160.00,0.0558
3159.00,0.0560
3158.00,0.0563
3157.00,0.0565
3156.00,0.0567
3155.00,0.0569
3154.00,0.0572
3153.00,0.0574
3152.00,0.0577
3151.00,0.0581
3150.00,0.0584
3149.00,0.0587
3148.00,0.0590
3147.00,0.0593
3146.00,0.0596
3145.00,0.0600
3144.00,0.0603
3143.00,0.0606
3142.00,0.0608
3141.00,0.0611
3140.00,0.0614
3139.00,0.0616
3138.00,0.0620
3137.00,0.0623
3136.00,0.0627
3135.00,0.0630
3134.00,0.0633
3133.00,0.0636
3132.00,0.0639
3131.00,0.0642
3130.00,0.0645
3129.00,0.0649
3128.00,0.0652
3127.00,0.0656
3126.00,0.0659
3125.00,0.0661
3124.00,0.0664
3123.00,0.0666
3122.00,0.0669
3121.00,0.0672
3120.00,0.0675
3119.00,0.0679
3118.00,0.0682
3117.00,0.0686
3116.00,0.0690
3115.00,0.0694
3114.00,0.0699
3113.00,0.0704
3112.00,0.0709
3111.00,0.0714
3110.00,0.0719
3109.00,0.0726
3108.00,0.0733
3107.00,0.0742
3106.00,0.0751
3105.00,0.0761
3104.00,0.0771
3103.00,0.0781
3102.00,0.0790
3101.00,0.0797
3100.00,0.0802
3099.00,0.0805
3098.00,0.0808
3097.00,0.0809
3096.00,0.0811
3095.00,0.0814
3094.00,0.0819
3093.00,0.0826
3092.00,0.0838
3091.00,0.0855
3090.00,0.0878
3089.00,0.0907
3088.00,0.0940
3087.00,0.0975
3086.00,0.1009
3085.00,0.1038
3084.00,0.1060
3083.00,0.1070
3082.00,0.1069
3081.00,0.1057
3080.00,0.1038
3079.00,0.1017
3078.00,0.0996
3077.00,0.0979
3076.00,0.0966
3075.00,0.0955
3074.00,0.0947
3073.00,0.0941
3072.00,0.0939
3071.00,0.0938
3070.00,0.0938
3069.00,0.0938
3068.00,0.0938
3067.00,0.0939
3066.00,0.0942
3065.00,0.0948
3064.00,0.0957
3063.00,0.0966
3062.00,0.0974
3061.00,0.0979
3060.00,0.0983
3059.00,0.0987
3058.00,0.0991
3057.00,0.0995
3056.00,0.0999
3055.00,0.1003
3054.00,0.1007
3053.00,0.1011
3052.00,0.1014
3051.00,0.1018
3050.00,0.1020
3049.00,0.1020
3048.00,0.1017
3047.00,0.1012
3046.00,0.1005
3045.00,0.0998
3044.00,0.0993
3043.00,0.0989
3042.00,0.0987
3041.00,0.0985
3040.00,0.0984
3039.00,0.0983
3038.00,0.0982
3037.00,0.0980
3036.00,0.0980
3035.00,0.0980
3034.00,0.0982
3033.00,0.0985
3032.00,0.0988
3031.00,0.0992
3030.00,0.0995
3029.00,0.0996
3028.00,0.0997
3027.00,0.0997
3026.00,0.0997
3025.00,0.0997
3024.00,0.0998
3023.00,0.0998
3022.00,0.0998
3021.00,0.0999
3020.00,0.0999
3019.00,0.0999
3018.00,0.0999
3017.00,0.0999
3016.00,0.0999
3015.00,0.0999
3014.00,0.0999
3013.00,0.1000
3012.00,0.1000
3011.00,0.1001
3010.00,0.1002
3009.00,0.1003
3008.00,0.1005
3007.00,0.1007
3006.00,0.1010
3005.00,0.1013
3004.00,0.1016
3003.00,0.1017
3002.00,0.1018
3001.00,0.1017
3000.00,0.1016
2999.00,0.1015
2998.00,0.1015
2997.00,0.1015
2996.00,0.1015
2995.00,0.1015
2994.00,0.1016
2993.00,0.1017
2992.00,0.1018
2991.00,0.1019
2990.00,0.1020
2989.00,0.1022
2988.00,0.1024
2987.00,0.1026
2986.00,0.1028
2985.00,0.1030
2984.00,0.1032
2983.00,0.1033
2982.00,0.1036
2981.00,0.1039
2980.00,0.1044
2979.00,0.1050
2978.00,0.1057
2977.00,0.1064
2976.00,0.1071
2975.00,0.1080
2974.00,0.1089
2973.00,0.1099
2972.00,0.1112
2971.00,0.1127
2970.00,0.1144
2969.00,0.1165
2968.00,0.1188
2967.00,0.1214
2966.00,0.1241
2965.00,0.1270
2964.00,0.1298
2963.00,0.1325
2962.00,0.1348
2961.00,0.1368
2960.00,0.1386
2959.00,0.1401
2958.00,0.1415
2957.00,0.1428
2956.00,0.1439
2955.00,0.1446
2954.00,0.1449
2953.00,0.1447
2952.00,0.1440
2951.00,0.1430
2950.00,0.1420
2949.00,0.1412
2948.00,0.1407
2947.00,0.1407
2946.00,0.1411
2945.00,0.1419
2944.00,0.1431
2943.00,0.1447
2942.00,0.1467
2941.00,0.1490
2940.00,0.1518
2939.00,0.1549
2938.00,0.1584
2937.00,0.1621
2936.00,0.1661
2935.00,0.1702
2934.00,0.1742
2933.00,0.1780
2932.00,0.1817
2931.00,0.1852
2930.00,0.1884
2929.00,0.1915
2928.00,0.1943
2927.00,0.1970
2926.00,0.1995
2925.00,0.2018
2924.00,0.2037
2923.00,0.2053
2922.00,0.2064
2921.00,0.2068
2920.00,0.2067
2919.00,0.2057
2918.00,0.2040
2917.00,0.2015
2916.00,0.1982
2915.00,0.1943
2914.00,0.1899
2913.00,0.1853
2912.00,0.1808
2911.00,0.1764
2910.00,0.1724
2909.00,0.1687
2908.00,0.1654
2907.00,0.1625
2906.00,0.1598
2905.00,0.1573
2904.00,0.1550
2903.00,0.1529
2902.00,0.1509
2901.00,0.1490
2900.00,0.1473
2899.00,0.1456
2898.00,0.1441
2897.00,0.1426
2896.00,0.1412
2895.00,0.1400
2894.00,0.1387
2893.00,0.1376
2892.00,0.1365
2891.00,0.1354
2890.00,0.1344
2889.00,0.1335
2888.00,0.1328
2887.00,0.1321
2886.00,0.1316
2885.00,0.1312
2884.00,0.1310
2883.00,0.1311
2882.00,0.1313
2881.00,0.1318
2880.00,0.1326
2879.00,0.1337
2878.00,0.1351
2877.00,0.1368
2876.00,0.1387
2875.00,0.1408
2874.00,0.1427
2873.00,0.1444
2872.00,0.1457
2871.00,0.1464
2870.00,0.1467
2869.00,0.1467
2868.00,0.1467
2867.00,0.1469
2866.00,0.1477
2865.00,0.1489
2864.00,0.1508
2863.00,0.1532
2862.00,0.1561
2861.00,0.1595
2860.00,0.1632
2859.00,0.1669
2858.00,0.1705
2857.00,0.1736
2856.00,0.1761
2855.00,0.1779
2854.00,0.1791
2853.00,0.1795
2852.00,0.1790
2851.00,0.1776
2850.00,0.1750
2849.00,0.1713
2848.00,0.1665
2847.00,0.1611
2846.00,0.1553
2845.00,0.1496
2844.00,0.1443
2843.00,0.1396
2842.00,0.1354
2841.00,0.1319
2840.00,0.1290
2839.00,0.1267
2838.00,0.1247
2837.00,0.1231
2836.00,0.1218
2835.00,0.1206
2834.00,0.1196
2833.00,0.1187
2832.00,0.1179
2831.00,0.1172
2830.00,0.1165
2829.00,0.1159
2828.00,0.1153
2827.00,0.1147
2826.00,0.1141
2825.00,0.1136
2824.00,0.1131
2823.00,0.1126
2822.00,0.1121
2821.00,0.1116
2820.00,0.1111
2819.00,0.1107
2818.00,0.1102
2817.00,0.1097
2816.00,0.1093
2815.00,0.1088
2814.00,0.1083
2813.00,0.1078
2812.00,0.1073
2811.00,0.1069
2810.00,0.1064
2809.00,0.1060
2808.00,0.1056
2807.00,0.1051
2806.00,0.1047
2805.00,0.1042
2804.00,0.1038
2803.00,0.1033
2802.00,0.1029
2801.00,0.1025
2800.00,0.1021
2799.00,0.1017
2798.00,0.1013
2797.00,0.1009
2796.00,0.1005
2795.00,0.1002
2794.00,0.0998
2793.00,0.0994
2792.00,0.0990
2791.00,0.0986
2790.00,0.0982
2789.00,0.0978
2788.00,0.0975
2787.00,0.0971
2786.00,0.0967
2785.00,0.0964
2784.00,0.0960
2783.00,0.0956
2782.00,0.0952
2781.00,0.0949
2780.00,0.0945
2779.00,0.0941
2778.00,0.0937
2777.00,0.0933
2776.00,0.0930
2775.00,0.0926
2774.00,0.0923
2773.00,0.0920
2772.00,0.0916
2771.00,0.0913
2770.00,0.0910
2769.00,0.0907
2768.00,0.0904
2767.00,0.0901
2766.00,0.0898
2765.00,0.0896
2764.00,0.0893
2763.00,0.0890
2762.00,0.0888
2761.00,0.0885
2760.00,0.0883
2759.00,0.0881
2758.00,0.0879
2757.00,0.0877
2756.00,0.0876
2755.00,0.0874
2754.00,0.0873
2753.00,0.0872
2752.00,0.0871
2751.00,0.0869
2750.00,0.0868
2749.00,0.0866
2748.00,0.0865
2747.00,0.0863
2746.00,0.0862
2745.00,0.0860
2744.00,0.0859
2743.00,0.0857
2742.00,0.0856
2741.00,0.0855
2740.00,0.0854
2739.00,0.0853
2738.00,0.0852
2737.00,0.0851
2736.00,0.0850
2735.00,0.0850
2734.00,0.0850
2733.00,0.0850
2732.00,0.0850
2731.00,0.0850
2730.00,0.0851
2729.00,0.0852
2728.00,0.0852
2727.00,0.0853
2726.00,0.0855
2725.00,0.0856
2724.00,0.0857
2723.00,0.0858
2722.00,0.0860
2721.00,0.0861
2720.00,0.0863
2719.00,0.0864
2718.00,0.0866
2717.00,0.0868
2716.00,0.0870
2715.00,0.0873
2714.00,0.0875
2713.00,0.0878
2712.00,0.0880
2711.00,0.0883
2710.00,0.0886
2709.00,0.0889
2708.00,0.0892
2707.00,0.0896
2706.00,0.0899
2705.00,0.0903
2704.00,0.0907
2703.00,0.0911
2702.00,0.0915
2701.00,0.0919
2700.00,0.0923
2699.00,0.0926
2698.00,0.0930
2697.00,0.0933
2696.00,0.0937
2695.00,0.0940
2694.00,0.0943
2693.00,0.0946
2692.00,0.0948
2691.00,0.0951
2690.00,0.0953
2689.00,0.0955
2688.00,0.0957
2687.00,0.0958
2686.00,0.0960
2685.00,0.0962
2684.00,0.0963
2683.00,0.0964
2682.00,0.0965
2681.00,0.0966
2680.00,0.0966
2679.00,0.0967
2678.00,0.0967
2677.00,0.0967
2676.00,0.0967
2675.00,0.0967
2674.00,0.0967
2673.00,0.0967
2672.00,0.0967
2671.00,0.0967
2670.00,0.0967
2669.00,0.0967
2668.00,0.0967
2667.00,0.0968
2666.00,0.0968
2665.00,0.0969
2664.00,0.0969
2663.00,0.0969
2662.00,0.0969
2661.00,0.0969
2660.00,0.0969
2659.00,0.0968
2658.00,0.0967
2657.00,0.0965
2656.00,0.0964
2655.00,0.0961
2654.00,0.0959
2653.00,0.0956
2652.00,0.0954
2651.00,0.0950
2650.00,0.0947
2649.00,0.0943
2648.00,0.0939
2647.00,0.0935
2646.00,0.0931
2645.00,0.0927
2644.00,0.0923
2643.00,0.0919
2642.00,0.0915
2641.00,0.0910
2640.00,0.0906
2639.00,0.0902
2638.00,0.0899
2637.00,0.0895
2636.00,0.0891
2635.00,0.0887
2634.00,0.0884
2633.00,0.0880
2632.00,0.0876
2631.00,0.0873
2630.00,0.0869
2629.00,0.0866
2628.00,0.0863
2627.00,0.0860
2626.00,0.0857
2625.00,0.0853
2624.00,0.0850
2623.00,0.0847
2622.00,0.0844
2621.00,0.0842
2620.00,0.0840
2619.00,0.0838
2618.00,0.0837
2617.00,0.0835
2616.00,0.0834
2615.00,0.0833
2614.00,0.0832
2613.00,0.0831
2612.00,0.0830
2611.00,0.0829
2610.00,0.0829
2609.00,0.0828
2608.00,0.0827
2607.00,0.0827
2606.00,0.0826
2605.00,0.0825
2604.00,0.0825
2603.00,0.0824
2602.00,0.0823
2601.00,0.0823
2600.00,0.0822
2599.00,0.0821
2598.00,0.0820
2597.00,0.0820
2596.00,0.0820
2595.00,0.0821
2594.00,0.0823
2593.00,0.0825
2592.00,0.0829
2591.00,0.0833
2590.00,0.0838
2589.00,0.0844
2588.00,0.0850
2587.00,0.0856
2586.00,0.0862
2585.00,0.0868
2584.00,0.0872
2583.00,0.0876
2582.00,0.0878
2581.00,0.0880
2580.00,0.0881
2579.00,0.0881
2578.00,0.0880
2577.00,0.0879
2576.00,0.0877
2575.00,0.0875
2574.00,0.0872
2573.00,0.0869
2572.00,0.0867
2571.00,0.0864
2570.00,0.0861
2569.00,0.0859
2568.00,0.0857
2567.00,0.0856
2566.00,0.0854
2565.00,0.0854
2564.00,0.0853
2563.00,0.0853
2562.00,0.0852
2561.00,0.0852
2560.00,0.0851
2559.00,0.0849
2558.00,0.0847
2557.00,0.0846
2556.00,0.0844
2555.00,0.0843
2554.00,0.0842
2553.00,0.0841
2552.00,0.0841
2551.00,0.0842
2550.00,0.0843
2549.00,0.0846
2548.00,0.0849
2547.00,0.0854
2546.00,0.0859
2545.00,0.0865
2544.00,0.0872
2543.00,0.0879
2542.00,0.0887
2541.00,0.0894
2540.00,0.0901
2539.00,0.0908
2538.00,0.0913
2537.00,0.0917
2536.00,0.0919
2535.00,0.0920
2534.00,0.0919
2533.00,0.0918
2532.00,0.0916
2531.00,0.0914
2530.00,0.0910
2529.00,0.0907
2528.00,0.0903
2527.00,0.0899
2526.00,0.0896
2525.00,0.0893
2524.00,0.0891
2523.00,0.0889
2522.00,0.0887
2521.00,0.0885
2520.00,0.0884
2519.00,0.0883
2518.00,0.0882
2517.00,0.0882
2516.00,0.0881
2515.00,0.0880
2514.00,0.0878
2513.00,0.0876
2512.00,0.0873
2511.00,0.0870
2510.00,0.0867
2509.00,0.0864
2508.00,0.0860
2507.00,0.0855
2506.00,0.0851
2505.00,0.0846
2504.00,0.0840
2503.00,0.0834
2502.00,0.0829
2501.00,0.0823
2500.00,0.0818
2499.00,0.0813
2498.00,0.0807
2497.00,0.0801
2496.00,0.0796
2495.00,0.0790
2494.00,0.0784
2493.00,0.0779
2492.00,0.0774
2491.00,0.0769
2490.00,0.0765
2489.00,0.0761
2488.00,0.0757
2487.00,0.0752
2486.00,0.0748
2485.00,0.0744
2484.00,0.0741
2483.00,0.0737
2482.00,0.0734
2481.00,0.0730
2480.00,0.0727
2479.00,0.0723
2478.00,0.0719
2477.00,0.0716
2476.00,0.0712
2475.00,0.0708
2474.00,0.0705
2473.00,0.0701
2472.00,0.0697
2471.00,0.0693
2470.00,0.0689
2469.00,0.0685
2468.00,0.0681
2467.00,0.0677
2466.00,0.0673
2465.00,0.0670
2464.00,0.0666
2463.00,0.0663
2462.00,0.0659
2461.00,0.0656
2460.00,0.0653
2459.00,0.0650
2458.00,0.0647
2457.00,0.0644
2456.00,0.0641
2455.00,0.0638
2454.00,0.0635
2453.00,0.0633
2452.00,0.0630
2451.00,0.0627
2450.00,0.0625
2449.00,0.0622
2448.00,0.0620
2447.00,0.0617
2446.00,0.0615
2445.00,0.0612
2444.00,0.0610
2443.00,0.0607
2442.00,0.0604
2441.00,0.0602
2440.00,0.0600
2439.00,0.0598
2438.00,0.0596
2437.00,0.0593
2436.00,0.0591
2435.00,0.0589
2434.00,0.0587
2433.00,0.0585
2432.00,0.0583
2431.00,0.0581
2430.00,0.0579
2429.00,0.0577
2428.00,0.0575
2427.00,0.0574
2426.00,0.0572
2425.00,0.0572
2424.00,0.0571
2423.00,0.0570
2422.00,0.0568
2421.00,0.0566
2420.00,0.0564
2419.00,0.0562
2418.00,0.0560
2417.00,0.0559
2416.00,0.0557
2415.00,0.0555
2414.00,0.0554
2413.00,0.0552
2412.00,0.0550
2411.00,0.0548
2410.00,0.0546
2409.00,0.0544
2408.00,0.0542
2407.00,0.0541
2406.00,0.0539
2405.00,0.0537
2404.00,0.0536
2403.00,0.0534
2402.00,0.0532
2401.00,0.0531
2400.00,0.0529
2399.00,0.0528
2398.00,0.0527
2397.00,0.0526
2396.00,0.0525
2395.00,0.0523
2394.00,0.0522
2393.00,0.0521
2392.00,0.0520
2391.00,0.0519
2390.00,0.0518
2389.00,0.0517
2388.00,0.0515
2387.00,0.0514
2386.00,0.0512
2385.00,0.0511
2384.00,0.0509
2383.00,0.0508
2382.00,0.0506
2381.00,0.0503
2380.00,0.0502
2379.00,0.0500
2378.00,0.0499
2377.00,0.0498
2376.00,0.0497
2375.00,0.0495
2374.00,0.0494
2373.00,0.0493
2372.00,0.0492
2371.00,0.0491
2370.00,0.0489
2369.00,0.0488
2368.00,0.0486
2367.00,0.0484
2366.00,0.0483
2365.00,0.0482
2364.00,0.0481
2363.00,0.0479
2362.00,0.0478
2361.00,0.0477
2360.00,0.0476
2359.00,0.0475
2358.00,0.0474
2357.00,0.0473
2356.00,0.0473
2355.00,0.0473
2354.00,0.0473
2353.00,0.0473
2352.00,0.0473
2351.00,0.0471
2350.00,0.0469
2349.00,0.0467
2348.00,0.0464
2347.00,0.0462
2346.00,0.0460
2345.00,0.0458
2344.00,0.0456
2343.00,0.0455
2342.00,0.0454
2341.00,0.0453
2340.00,0.0454
2339.00,0.0454
2338.00,0.0454
2337.00,0.0453
2336.00,0.0453
2335.00,0.0452
2334.00,0.0451
2333.00,0.0450
2332.00,0.0449
2331.00,0.0448
2330.00,0.0447
2329.00,0.0448
2328.00,0.0449
2327.00,0.0451
2326.00,0.0452
2325.00,0.0452
2324.00,0.0450
2323.00,0.0447
2322.00,0.0444
2321.00,0.0442
2320.00,0.0440
2319.00,0.0439
2318.00,0.0438
2317.00,0.0437
2316.00,0.0436
2315.00,0.0435
2314.00,0.0433
2313.00,0.0431
2312.00,0.0429
2311.00,0.0427
2310.00,0.0425
2309.00,0.0424
2308.00,0.0423
2307.00,0.0422
2306.00,0.0421
2305.00,0.0421
2304.00,0.0420
2303.00,0.0420
2302.00,0.0419
2301.00,0.0418
2300.00,0.0418
2299.00,0.0417
2298.00,0.0417
2297.00,0.0418
2296.00,0.0418
2295.00,0.0419
2294.00,0.0419
2293.00,0.0419
2292.00,0.0420
2291.00,0.0420
2290.00,0.0420
2289.00,0.0420
2288.00,0.0420
2287.00,0.0419
2286.00,0.0418
2285.00,0.0416
2284.00,0.0414
2283.00,0.0412
2282.00,0.0409
2281.00,0.0406
2280.00,0.0405
2279.00,0.0403
2278.00,0.0402
2277.00,0.0401
2276.00,0.0400
2275.00,0.0399
2274.00,0.0397
2273.00,0.0396
2272.00,0.0396
2271.00,0.0396
2270.00,0.0396
2269.00,0.0396
2268.00,0.0396
2267.00,0.0395
2266.00,0.0394
2265.00,0.0393
2264.00,0.0393
2263.00,0.0393
2262.00,0.0393
2261.00,0.0393
2260.00,0.0394
2259.00,0.0394
2258.00,0.0393
2257.00,0.0393
2256.00,0.0393
2255.00,0.0393
2254.00,0.0394
2253.00,0.0395
2252.00,0.0396
2251.00,0.0397
2250.00,0.0397
2249.00,0.0397
2248.00,0.0397
2247.00,0.0397
2246.00,0.0396
2245.00,0.0395
2244.00,0.0395
2243.00,0.0394
2242.00,0.0392
2241.00,0.0391
2240.00,0.0390
2239.00,0.0389
2238.00,0.0386
2237.00,0.0384
2236.00,0.0382
2235.00,0.0380
2234.00,0.0378
2233.00,0.0376
2232.00,0.0375
2231.00,0.0374
2230.00,0.0373
2229.00,0.0371
2228.00,0.0371
2227.00,0.0370
2226.00,0.0368
2225.00,0.0367
2224.00,0.0365
2223.00,0.0362
2222.00,0.0359
2221.00,0.0357
2220.00,0.0357
2219.00,0.0357
2218.00,0.0356
2217.00,0.0355
2216.00,0.0354
2215.00,0.0352
2214.00,0.0350
2213.00,0.0348
2212.00,0.0348
2211.00,0.0348
2210.00,0.0348
2209.00,0.0348
2208.00,0.0348
2207.00,0.0347
2206.00,0.0346
2205.00,0.0345
2204.00,0.0345
2203.00,0.0344
2202.00,0.0342
2201.00,0.0341
2200.00,0.0342
2199.00,0.0343
2198.00,0.0343
2197.00,0.0344
2196.00,0.0345
2195.00,0.0345
2194.00,0.0345
2193.00,0.0346
2192.00,0.0347
2191.00,0.0347
2190.00,0.0347
2189.00,0.0347
2188.00,0.0348
2187.00,0.0348
2186.00,0.0348
2185.00,0.0346
2184.00,0.0344
2183.00,0.0341
2182.00,0.0338
2181.00,0.0338
2180.00,0.0340
2179.00,0.0342
2178.00,0.0341
2177.00,0.0340
2176.00,0.0339
2175.00,0.0338
2174.00,0.0338
2173.00,0.0338
2172.00,0.0338
2171.00,0.0337
2170.00,0.0335
2169.00,0.0333
2168.00,0.0332
2167.00,0.0332
2166.00,0.0332
2165.00,0.0333
2164.00,0.0335
2163.00,0.0335
2162.00,0.0330
2161.00,0.0319
2160.00,0.0307
2159.00,0.0294
2158.00,0.0287
2157.00,0.0287
2156.00,0.0292
2155.00,0.0297
2154.00,0.0299
2153.00,0.0301
2152.00,0.0302
2151.00,0.0302
2150.00,0.0301
2149.00,0.0301
2148.00,0.0301
2147.00,0.0300
2146.00,0.0298
2145.00,0.0297
2144.00,0.0296
2143.00,0.0295
2142.00,0.0293
2141.00,0.0293
2140.00,0.0293
2139.00,0.0293
2138.00,0.0292
2137.00,0.0291
2136.00,0.0290
2135.00,0.0289
2134.00,0.0288
2133.00,0.0288
2132.00,0.0289
2131.00,0.0290
2130.00,0.0290
2129.00,0.0290
2128.00,0.0291
2127.00,0.0292
2126.00,0.0291
2125.00,0.0292
2124.00,0.0292
2123.00,0.0293
2122.00,0.0293
2121.00,0.0292
2120.00,0.0293
2119.00,0.0293
2118.00,0.0293
2117.00,0.0294
2116.00,0.0295
2115.00,0.0295
2114.00,0.0294
2113.00,0.0293
2112.00,0.0292
2111.00,0.0291
2110.00,0.0291
2109.00,0.0291
2108.00,0.0291
2107.00,0.0290
2106.00,0.0289
2105.00,0.0288
2104.00,0.0288
2103.00,0.0287
2102.00,0.0285
2101.00,0.0284
2100.00,0.0284
2099.00,0.0283
2098.00,0.0282
2097.00,0.0280
2096.00,0.0279
2095.00,0.0279
2094.00,0.0278
2093.00,0.0279
2092.00,0.0280
2091.00,0.0281
2090.00,0.0281
2089.00,0.0282
2088.00,0.0283
2087.00,0.0283
2086.00,0.0283
2085.00,0.0283
2084.00,0.0283
2083.00,0.0283
2082.00,0.0283
2081.00,0.0282
2080.00,0.0282
2079.00,0.0282
2078.00,0.0280
2077.00,0.0279
2076.00,0.0279
2075.00,0.0279
2074.00,0.0277
2073.00,0.0276
2072.00,0.0276
2071.00,0.0274
2070.00,0.0272
2069.00,0.0270
2068.00,0.0270
2067.00,0.0269
2066.00,0.0268
2065.00,0.0267
2064.00,0.0267
2063.00,0.0266
2062.00,0.0264
2061.00,0.0264
2060.00,0.0264
2059.00,0.0264
2058.00,0.0263
2057.00,0.0262
2056.00,0.0262
2055.00,0.0262
2054.00,0.0263
2053.00,0.0265
2052.00,0.0268
2051.00,0.0268
2050.00,0.0264
2049.00,0.0260
2048.00,0.0258
2047.00,0.0257
2046.00,0.0256
2045.00,0.0255
2044.00,0.0256
2043.00,0.0254
2042.00,0.0252
2041.00,0.0251
2040.00,0.0251
2039.00,0.0252
2038.00,0.0252
2037.00,0.0251
2036.00,0.0249
2035.00,0.0245
2034.00,0.0239
2033.00,0.0234
2032.00,0.0233
2031.00,0.0232
2030.00,0.0230
2029.00,0.0229
2028.00,0.0228
2027.00,0.0225
2026.00,0.0221
2025.00,0.0218
2024.00,0.0218
2023.00,0.0217
2022.00,0.0215
2021.00,0.0216
2020.00,0.0218
2019.00,0.0219
2018.00,0.0217
2017.00,0.0215
2016.00,0.0215
2015.00,0.0214
2014.00,0.0213
2013.00,0.0214
2012.00,0.0217
2011.00,0.0219
2010.00,0.0219
2009.00,0.0220
2008.00,0.0220
2007.00,0.0220
2006.00,0.0219
2005.00,0.0220
2004.00,0.0223
2003.00,0.0225
2002.00,0.0226
2001.00,0.0227
2000.00,0.0230
1999.00,0.0232
1998.00,0.0233
1997.00,0.0235
1996.00,0.0237
1995.00,0.0239
1994.00,0.0239
1993.00,0.0240
1992.00,0.0242
1991.00,0.0245
1990.00,0.0246
1989.00,0.0248
1988.00,0.0251
1987.00,0.0252
1986.00,0.0252
1985.00,0.0252
1984.00,0.0254
1983.00,0.0255
1982.00,0.0254
1981.00,0.0254
1980.00,0.0253
1979.00,0.0249
1978.00,0.0243
1977.00,0.0239
1976.00,0.0239
1975.00,0.0239
1974.00,0.0237
1973.00,0.0238
1972.00,0.0240
1971.00,0.0242
1970.00,0.0241
1969.00,0.0240
1968.00,0.0241
1967.00,0.0241
1966.00,0.0240
1965.00,0.0238
1964.00,0.0238
1963.00,0.0238
1962.00,0.0238
1961.00,0.0240
1960.00,0.0244
1959.00,0.0249
1958.00,0.0254
1957.00,0.0259
1956.00,0.0265
1955.00,0.0268
1954.00,0.0268
1953.00,0.0268
1952.00,0.0268
1951.00,0.0267
1950.00,0.0266
1949.00,0.0267
1948.00,0.0269
1947.00,0.0271
1946.00,0.0273
1945.00,0.0275
1944.00,0.0278
1943.00,0.0281
1942.00,0.0283
1941.00,0.0285
1940.00,0.0287
1939.00,0.0286
1938.00,0.0285
1937.00,0.0284
1936.00,0.0284
1935.00,0.0284
1934.00,0.0284
1933.00,0.0285
1932.00,0.0287
1931.00,0.0289
1930.00,0.0290
1929.00,0.0292
1928.00,0.0295
1927.00,0.0297
1926.00,0.0298
1925.00,0.0301
1924.00,0.0306
1923.00,0.0311
1922.00,0.0314
1921.00,0.0315
1920.00,0.0314
1919.00,0.0312
1918.00,0.0309
1917.00,0.0308
1916.00,0.0310
1915.00,0.0311
1914.00,0.0311
1913.00,0.0311
1912.00,0.0313
1911.00,0.0314
1910.00,0.0315
1909.00,0.0317
1908.00,0.0319
1907.00,0.0319
1906.00,0.0317
1905.00,0.0316
1904.00,0.0315
1903.00,0.0314
1902.00,0.0313
1901.00,0.0313
1900.00,0.0313
1899.00,0.0313
1898.00,0.0312
1897.00,0.0313
1896.00,0.0315
1895.00,0.0317
1894.00,0.0318
1893.00,0.0319
1892.00,0.0321
1891.00,0.0322
1890.00,0.0323
1889.00,0.0324
1888.00,0.0326
1887.00,0.0328
1886.00,0.0328
1885.00,0.0329
1884.00,0.0329
1883.00,0.0329
1882.00,0.0327
1881.00,0.0325
1880.00,0.0324
1879.00,0.0322
1878.00,0.0318
1877.00,0.0315
1876.00,0.0313
1875.00,0.0311
1874.00,0.0308
1873.00,0.0306
1872.00,0.0306
1871.00,0.0305
1870.00,0.0303
1869.00,0.0303
1868.00,0.0305
1867.00,0.0306
1866.00,0.0305
1865.00,0.0303
1864.00,0.0302
1863.00,0.0302
1862.00,0.0302
1861.00,0.0302
1860.00,0.0304
1859.00,0.0305
1858.00,0.0305
1857.00,0.0305
1856.00,0.0306
1855.00,0.0307
1854.00,0.0307
1853.00,0.0307
1852.00,0.0308
1851.00,0.0308
1850.00,0.0309
1849.00,0.0310
1848.00,0.0313
1847.00,0.0314
1846.00,0.0313
1845.00,0.0310
1844.00,0.0309
1843.00,0.0309
1842.00,0.0311
1841.00,0.0313
1840.00,0.0315
1839.00,0.0315
1838.00,0.0314
1837.00,0.0314
1836.00,0.0315
1835.00,0.0314
1834.00,0.0313
1833.00,0.0312
1832.00,0.0312
1831.00,0.0311
1830.00,0.0311
1829.00,0.0312
1828.00,0.0315
1827.00,0.0317
1826.00,0.0317
1825.00,0.0318
1824.00,0.0320
1823.00,0.0322
1822.00,0.0323
1821.00,0.0324
1820.00,0.0325
1819.00,0.0326
1818.00,0.0328
1817.00,0.0330
1816.00,0.0332
1815.00,0.0334
1814.00,0.0335
1813.00,0.0337
1812.00,0.0339
1811.00,0.0340
1810.00,0.0341
1809.00,0.0341
1808.00,0.0341
1807.00,0.0341
1806.00,0.0340
1805.00,0.0340
1804.00,0.0340
1803.00,0.0341
1802.00,0.0342
1801.00,0.0342
1800.00,0.0343
1799.00,0.0343
1798.00,0.0343
1797.00,0.0344
1796.00,0.0346
1795.00,0.0346
1794.00,0.0344
1793.00,0.0341
1792.00,0.0342
1791.00,0.0345
1790.00,0.0348
1789.00,0.0351
1788.00,0.0353
1787.00,0.0354
1786.00,0.0353
1785.00,0.0354
1784.00,0.0356
1783.00,0.0357
1782.00,0.0358
1781.00,0.0360
1780.00,0.0361
1779.00,0.0361
1778.00,0.0360
1777.00,0.0360
1776.00,0.0360
1775.00,0.0360
1774.00,0.0357
1773.00,0.0354
1772.00,0.0354
1771.00,0.0357
1770.00,0.0361
1769.00,0.0364
1768.00,0.0367
1767.00,0.0368
1766.00,0.0370
1765.00,0.0373
1764.00,0.0376
1763.00,0.0378
1762.00,0.0379
1761.00,0.0382
1760.00,0.0389
1759.00,0.0395
1758.00,0.0400
1757.00,0.0405
1756.00,0.0411
1755.00,0.0417
1754.00,0.0423
1753.00,0.0429
1752.00,0.0436
1751.00,0.0445
1750.00,0.0456
1749.00,0.0471
1748.00,0.0485
1747.00,0.0497
1746.00,0.0506
1745.00,0.0515
1744.00,0.0525
1743.00,0.0534
1742.00,0.0540
1741.00,0.0545
1740.00,0.0554
1739.00,0.0565
1738.00,0.0577
1737.00,0.0588
1736.00,0.0598
1735.00,0.0607
1734.00,0.0623
1733.00,0.0651
1732.00,0.0687
1731.00,0.0725
1730.00,0.0763
1729.00,0.0802
1728.00,0.0847
1727.00,0.0896
1726.00,0.0950
1725.00,0.1015
1724.00,0.1093
1723.00,0.1179
1722.00,0.1268
1721.00,0.1360
1720.00,0.1460
1719.00,0.1579
1718.00,0.1727
1717.00,0.1897
1716.00,0.2069
1715.00,0.2233
1714.00,0.2390
1713.00,0.2541
1712.00,0.2685
1711.00,0.2823
1710.00,0.2952
1709.00,0.3069
1708.00,0.3170
1707.00,0.3257
1706.00,0.3328
1705.00,0.3377
1704.00,0.3399
1703.00,0.3396
1702.00,0.3370
1701.00,0.3326
1700.00,0.3281
1699.00,0.3252
1698.00,0.3235
1697.00,0.3215
1696.00,0.3190
1695.00,0.3169
1694.00,0.3156
1693.00,0.3149
1692.00,0.3141
1691.00,0.3134
1690.00,0.3128
1689.00,0.3123
1688.00,0.3115
1687.00,0.3102
1686.00,0.3086
1685.00,0.3072
1684.00,0.3069
1683.00,0.3070
1682.00,0.3065
1681.00,0.3054
1680.00,0.3038
1679.00,0.3018
1678.00,0.2995
1677.00,0.2969
1676.00,0.2947
1675.00,0.2932
1674.00,0.2923
1673.00,0.2914
1672.00,0.2901
1671.00,0.2889
1670.00,0.2880
1669.00,0.2873
1668.00,0.2865
1667.00,0.2854
1666.00,0.2839
1665.00,0.2819
1664.00,0.2798
1663.00,0.2779
1662.00,0.2761
1661.00,0.2740
1660.00,0.2714
1659.00,0.2684
1658.00,0.2651
1657.00,0.2613
1656.00,0.2570
1655.00,0.2522
1654.00,0.2473
1653.00,0.2433
1652.00,0.2403
1651.00,0.2382
1650.00,0.2366
1649.00,0.2344
1648.00,0.2316
1647.00,0.2290
1646.00,0.2268
1645.00,0.2247
1644.00,0.2227
1643.00,0.2210
1642.00,0.2193
1641.00,0.2173
1640.00,0.2151
1639.00,0.2130
1638.00,0.2107
1637.00,0.2081
1636.00,0.2055
1635.00,0.2032
1634.00,0.2009
1633.00,0.1987
1632.00,0.1964
1631.00,0.1937
1630.00,0.1908
1629.00,0.1878
1628.00,0.1847
1627.00,0.1819
1626.00,0.1790
1625.00,0.1760
1624.00,0.1730
1623.00,0.1703
1622.00,0.1679
1621.00,0.1655
1620.00,0.1631
1619.00,0.1605
1618.00,0.1578
1617.00,0.1551
1616.00,0.1531
1615.00,0.1516
1614.00,0.1504
1613.00,0.1490
1612.00,0.1474
1611.00,0.1457
1610.00,0.1442
1609.00,0.1427
1608.00,0.1412
1607.00,0.1398
1606.00,0.1383
1605.00,0.1369
1604.00,0.1356
1603.00,0.1344
1602.00,0.1335
1601.00,0.1328
1600.00,0.1324
1599.00,0.1323
1598.00,0.1323
1597.00,0.1325
1596.00,0.1333
1595.00,0.1352
1594.00,0.1372
1593.00,0.1380
1592.00,0.1370
1591.00,0.1347
1590.00,0.1322
1589.00,0.1303
1588.00,0.1288
1587.00,0.1277
1586.00,0.1266
1585.00,0.1254
1584.00,0.1242
1583.00,0.1229
1582.00,0.1217
1581.00,0.1204
1580.00,0.1190
1579.00,0.1174
1578.00,0.1158
1577.00,0.1140
1576.00,0.1126
1575.00,0.1118
1574.00,0.1115
1573.00,0.1111
1572.00,0.1104
1571.00,0.1095
1570.00,0.1089
1569.00,0.1085
1568.00,0.1082
1567.00,0.1077
1566.00,0.1070
1565.00,0.1061
1564.00,0.1052
1563.00,0.1040
1562.00,0.1025
1561.00,0.1002
1560.00,0.0978
1559.00,0.0966
1558.00,0.0964
1557.00,0.0957
1556.00,0.0952
1555.00,0.0945
1554.00,0.0935
1553.00,0.0923
1552.00,0.0913
1551.00,0.0904
1550.00,0.0895
1549.00,0.0883
1548.00,0.0870
1547.00,0.0857
1546.00,0.0844
1545.00,0.0834
1544.00,0.0824
1543.00,0.0814
1542.00,0.0800
1541.00,0.0787
1540.00,0.0776
1539.00,0.0768
1538.00,0.0763
1537.00,0.0763
1536.00,0.0763
1535.00,0.0759
1534.00,0.0753
1533.00,0.0748
1532.00,0.0745
1531.00,0.0741
1530.00,0.0737
1529.00,0.0732
1528.00,0.0727
1527.00,0.0723
1526.00,0.0718
1525.00,0.0713
1524.00,0.0708
1523.00,0.0704
1522.00,0.0702
1521.00,0.0700
1520.00,0.0697
1519.00,0.0694
1518.00,0.0690
1517.00,0.0685
1516.00,0.0678
1515.00,0.0673
1514.00,0.0673
1513.00,0.0680
1512.00,0.0694
1511.00,0.0708
1510.00,0.0716
1509.00,0.0713
1508.00,0.0706
1507.00,0.0708
1506.00,0.0716
1505.00,0.0721
1504.00,0.0723
1503.00,0.0720
1502.00,0.0708
1501.00,0.0687
1500.00,0.0665
1499.00,0.0643
1498.00,0.0623
1497.00,0.0603
1496.00,0.0586
1495.00,0.0573
1494.00,0.0564
1493.00,0.0556
1492.00,0.0548
1491.00,0.0539
1490.00,0.0533
1489.00,0.0529
1488.00,0.0522
1487.00,0.0513
1486.00,0.0505
1485.00,0.0498
1484.00,0.0493
1483.00,0.0491
1482.00,0.0490
1481.00,0.0491
1480.00,0.0494
1479.00,0.0497
1478.00,0.0502
1477.00,0.0510
1476.00,0.0522
1475.00,0.0540
1474.00,0.0567
1473.00,0.0609
1472.00,0.0665
1471.00,0.0722
1470.00,0.0773
1469.00,0.0813
1468.00,0.0840
1467.00,0.0853
1466.00,0.0852
1465.00,0.0842
1464.00,0.0829
1463.00,0.0819
1462.00,0.0816
1461.00,0.0817
1460.00,0.0819
1459.00,0.0822
1458.00,0.0822
1457.00,0.0818
1456.00,0.0810
1455.00,0.0803
1454.00,0.0800
1453.00,0.0797
1452.00,0.0795
1451.00,0.0796
1450.00,0.0802
1449.00,0.0817
1448.00,0.0840
1447.00,0.0870
1446.00,0.0905
1445.00,0.0945
1444.00,0.0988
1443.00,0.1036
1442.00,0.1089
1441.00,0.1148
1440.00,0.1212
1439.00,0.1280
1438.00,0.1361
1437.00,0.1465
1436.00,0.1586
1435.00,0.1706
1434.00,0.1818
1433.00,0.1926
1432.00,0.2035
1431.00,0.2141
1430.00,0.2241
1429.00,0.2330
1428.00,0.2401
1427.00,0.2450
1426.00,0.2482
1425.00,0.2503
1424.00,0.2511
1423.00,0.2504
1422.00,0.2484
1421.00,0.2457
1420.00,0.2429
1419.00,0.2403
1418.00,0.2386
1417.00,0.2379
1416.00,0.2378
1415.00,0.2382
1414.00,0.2390
1413.00,0.2401
1412.00,0.2404
1411.00,0.2390
1410.00,0.2354
1409.00,0.2301
1408.00,0.2235
1407.00,0.2158
1406.00,0.2076
1405.00,0.1993
1404.00,0.1910
1403.00,0.1831
1402.00,0.1757
1401.00,0.1690
1400.00,0.1626
1399.00,0.1566
1398.00,0.1513
1397.00,0.1466
1396.00,0.1421
1395.00,0.1379
1394.00,0.1346
1393.00,0.1331
1392.00,0.1334
1391.00,0.1343
1390.00,0.1345
1389.00,0.1327
1388.00,0.1290
1387.00,0.1247
1386.00,0.1209
1385.00,0.1179
1384.00,0.1152
1383.00,0.1126
1382.00,0.1105
1381.00,0.1088
1380.00,0.1073
1379.00,0.1057
1378.00,0.1038
1377.00,0.1016
1376.00,0.0991
1375.00,0.0965
1374.00,0.0942
1373.00,0.0919
1372.00,0.0897
1371.00,0.0877
1370.00,0.0861
1369.00,0.0846
1368.00,0.0833
1367.00,0.0820
1366.00,0.0809
1365.00,0.0802
1364.00,0.0799
1363.00,0.0797
1362.00,0.0795
1361.00,0.0788
1360.00,0.0776
1359.00,0.0764
1358.00,0.0755
1357.00,0.0750
1356.00,0.0747
1355.00,0.0746
1354.00,0.0744
1353.00,0.0741
1352.00,0.0735
1351.00,0.0728
1350.00,0.0720
1349.00,0.0711
1348.00,0.0701
1347.00,0.0691
1346.00,0.0682
1345.00,0.0675
1344.00,0.0669
1343.00,0.0665
1342.00,0.0663
1341.00,0.0663
1340.00,0.0664
1339.00,0.0666
1338.00,0.0667
1337.00,0.0668
1336.00,0.0672
1335.00,0.0680
1334.00,0.0694
1333.00,0.0715
1332.00,0.0743
1331.00,0.0779
1330.00,0.0823
1329.00,0.0873
1328.00,0.0927
1327.00,0.0985
1326.00,0.1045
1325.00,0.1106
1324.00,0.1166
1323.00,0.1221
1322.00,0.1267
1321.00,0.1301
1320.00,0.1321
1319.00,0.1326
1318.00,0.1318
1317.00,0.1300
1316.00,0.1278
1315.00,0.1254
1314.00,0.1232
1313.00,0.1212
1312.00,0.1193
1311.00,0.1175
1310.00,0.1158
1309.00,0.1143
1308.00,0.1128
1307.00,0.1115
1306.00,0.1105
1305.00,0.1099
1304.00,0.1098
1303.00,0.1104
1302.00,0.1118
1301.00,0.1138
1300.00,0.1164
1299.00,0.1195
1298.00,0.1230
1297.00,0.1267
1296.00,0.1305
1295.00,0.1342
1294.00,0.1379
1293.00,0.1416
1292.00,0.1454
1291.00,0.1497
1290.00,0.1548
1289.00,0.1609
1288.00,0.1683
1287.00,0.1771
1286.00,0.1875
1285.00,0.1992
1284.00,0.2120
1283.00,0.2256
1282.00,0.2394
1281.00,0.2533
1280.00,0.2670
1279.00,0.2801
1278.00,0.2925
1277.00,0.3040
1276.00,0.3143
1275.00,0.3228
1274.00,0.3288
1273.00,0.3315
1272.00,0.3308
1271.00,0.3271
1270.00,0.3215
1269.00,0.3150
1268.00,0.3080
1267.00,0.3003
1266.00,0.2919
1265.00,0.2826
1264.00,0.2726
1263.00,0.2619
1262.00,0.2509
1261.00,0.2397
1260.00,0.2284
1259.00,0.2171
1258.00,0.2062
1257.00,0.1958
1256.00,0.1861
1255.00,0.1772
1254.00,0.1691
1253.00,0.1619
1252.00,0.1556
1251.00,0.1503
1250.00,0.1461
1249.00,0.1431
1248.00,0.1413
1247.00,0.1408
1246.00,0.1415
1245.00,0.1436
1244.00,0.1470
1243.00,0.1519
1242.00,0.1585
1241.00,0.1668
1240.00,0.1769
1239.00,0.1885
1238.00,0.2015
1237.00,0.2153
1236.00,0.2295
1235.00,0.2437
1234.00,0.2572
1233.00,0.2692
1232.00,0.2789
1231.00,0.2853
1230.00,0.2882
1229.00,0.2880
1228.00,0.2854
1227.00,0.2812
1226.00,0.2762
1225.00,0.2707
1224.00,0.2650
1223.00,0.2591
1222.00,0.2533
1221.00,0.2482
1220.00,0.2443
1219.00,0.2420
1218.00,0.2419
1217.00,0.2437
1216.00,0.2469
1215.00,0.2506
1214.00,0.2539
1213.00,0.2560
1212.00,0.2566
1211.00,0.2551
1210.00,0.2515
1209.00,0.2462
1208.00,0.2399
1207.00,0.2332
1206.00,0.2270
1205.00,0.2217
1204.00,0.2174
1203.00,0.2143
1202.00,0.2126
1201.00,0.2119
1200.00,0.2115
1199.00,0.2109
1198.00,0.2095
1197.00,0.2075
1196.00,0.2051
1195.00,0.2024
1194.00,0.1995
1193.00,0.1963
1192.00,0.1925
1191.00,0.1882
1190.00,0.1838
1189.00,0.1795
1188.00,0.1754
1187.00,0.1715
1186.00,0.1680
1185.00,0.1647
1184.00,0.1618
1183.00,0.1590
1182.00,0.1566
1181.00,0.1543
1180.00,0.1523
1179.00,0.1504
1178.00,0.1487
1177.00,0.1472
1176.00,0.1457
1175.00,0.1441
1174.00,0.1426
1173.00,0.1411
1172.00,0.1396
1171.00,0.1382
1170.00,0.1370
1169.00,0.1358
1168.00,0.1347
1167.00,0.1336
1166.00,0.1325
1165.00,0.1314
1164.00,0.1302
1163.00,0.1290
1162.00,0.1278
1161.00,0.1266
1160.00,0.1253
1159.00,0.1240
1158.00,0.1227
1157.00,0.1214
1156.00,0.1201
1155.00,0.1187
1154.00,0.1173
1153.00,0.1159
1152.00,0.1146
1151.00,0.1131
1150.00,0.1118
1149.00,0.1104
1148.00,0.1092
1147.00,0.1080
1146.00,0.1070
1145.00,0.1064
1144.00,0.1062
1143.00,0.1063
1142.00,0.1062
1141.00,0.1054
1140.00,0.1041
1139.00,0.1025
1138.00,0.1011
1137.00,0.0998
1136.00,0.0987
1135.00,0.0976
1134.00,0.0967
1133.00,0.0963
1132.00,0.0966
1131.00,0.0980
1130.00,0.1008
1129.00,0.1042
1128.00,0.1072
1127.00,0.1090
1126.00,0.1098
1125.00,0.1106
1124.00,0.1118
1123.00,0.1129
1122.00,0.1131
1121.00,0.1120
1120.00,0.1101
1119.00,0.1082
1118.00,0.1068
1117.00,0.1057
1116.00,0.1048
1115.00,0.1041
1114.00,0.1035
1113.00,0.1028
1112.00,0.1021
1111.00,0.1014
1110.00,0.1006
1109.00,0.0997
1108.00,0.0988
1107.00,0.0977
1106.00,0.0965
1105.00,0.0954
1104.00,0.0942
1103.00,0.0932
1102.00,0.0922
1101.00,0.0913
1100.00,0.0904
1099.00,0.0896
1098.00,0.0889
1097.00,0.0882
1096.00,0.0876
1095.00,0.0870
1094.00,0.0865
1093.00,0.0861
1092.00,0.0856
1091.00,0.0853
1090.00,0.0850
1089.00,0.0847
1088.00,0.0844
1087.00,0.0839
1086.00,0.0835
1085.00,0.0832
1084.00,0.0828
1083.00,0.0826
1082.00,0.0825
1081.00,0.0825
1080.00,0.0826
1079.00,0.0829
1078.00,0.0835
1077.00,0.0842
1076.00,0.0849
1075.00,0.0853
1074.00,0.0853
1073.00,0.0849
1072.00,0.0842
1071.00,0.0835
1070.00,0.0830
1069.00,0.0825
1068.00,0.0822
1067.00,0.0820
1066.00,0.0819
1065.00,0.0818
1064.00,0.0818
1063.00,0.0819
1062.00,0.0820
1061.00,0.0821
1060.00,0.0822
1059.00,0.0822
1058.00,0.0821
1057.00,0.0820
1056.00,0.0819
1055.00,0.0817
1054.00,0.0814
1053.00,0.0811
1052.00,0.0807
1051.00,0.0804
1050.00,0.0801
1049.00,0.0798
1048.00,0.0795
1047.00,0.0792
1046.00,0.0789
1045.00,0.0787
1044.00,0.0786
1043.00,0.0784
1042.00,0.0783
1041.00,0.0782
1040.00,0.0782
1039.00,0.0781
1038.00,0.0780
1037.00,0.0780
1036.00,0.0780
1035.00,0.0781
1034.00,0.0781
1033.00,0.0782
1032.00,0.0782
1031.00,0.0783
1030.00,0.0785
1029.00,0.0787
1028.00,0.0790
1027.00,0.0795
1026.00,0.0801
1025.00,0.0810
1024.00,0.0821
1023.00,0.0834
1022.00,0.0850
1021.00,0.0872
1020.00,0.0902
1019.00,0.0946
1018.00,0.1009
1017.00,0.1095
1016.00,0.1203
1015.00,0.1328
1014.00,0.1461
1013.00,0.1590
1012.00,0.1701
1011.00,0.1788
1010.00,0.1849
1009.00,0.1890
1008.00,0.1912
1007.00,0.1910
1006.00,0.1884
1005.00,0.1845
1004.00,0.1813
1003.00,0.1800
1002.00,0.1806
1001.00,0.1818
1000.00,0.1821
999.00,0.1805
998.00,0.1768
997.00,0.1713
996.00,0.1645
995.00,0.1571
994.00,0.1497
993.00,0.1427
992.00,0.1365
991.00,0.1312
990.00,0.1268
989.00,0.1231
988.00,0.1202
987.00,0.1178
986.00,0.1159
985.00,0.1145
984.00,0.1136
983.00,0.1133
982.00,0.1136
981.00,0.1141
980.00,0.1145
979.00,0.1146
978.00,0.1147
977.00,0.1148
976.00,0.1153
975.00,0.1161
974.00,0.1173
973.00,0.1189
972.00,0.1207
971.00,0.1226
970.00,0.1243
969.00,0.1258
968.00,0.1272
967.00,0.1287
966.00,0.1305
965.00,0.1329
964.00,0.1360
963.00,0.1402
962.00,0.1455
961.00,0.1518
960.00,0.1581
959.00,0.1632
958.00,0.1666
957.00,0.1680
956.00,0.1683
955.00,0.1682
954.00,0.1685
953.00,0.1693
952.00,0.1703
951.00,0.1715
950.00,0.1728
949.00,0.1741
948.00,0.1754
947.00,0.1767
946.00,0.1782
945.00,0.1798
944.00,0.1817
943.00,0.1839
942.00,0.1866
941.00,0.1900
940.00,0.1940
939.00,0.1986
938.00,0.2039
937.00,0.2096
936.00,0.2156
935.00,0.2218
934.00,0.2277
933.00,0.2332
932.00,0.2379
931.00,0.2418
930.00,0.2447
929.00,0.2469
928.00,0.2485
927.00,0.2497
926.00,0.2507
925.00,0.2517
924.00,0.2527
923.00,0.2536
922.00,0.2545
921.00,0.2554
920.00,0.2563
919.00,0.2572
918.00,0.2579
917.00,0.2581
916.00,0.2578
915.00,0.2567
914.00,0.2553
913.00,0.2542
912.00,0.2538
911.00,0.2545
910.00,0.2561
909.00,0.2584
908.00,0.2610
907.00,0.2636
906.00,0.2661
905.00,0.2683
904.00,0.2702
903.00,0.2718
902.00,0.2730
901.00,0.2739
900.00,0.2746
899.00,0.2750
898.00,0.2752
897.00,0.2752
896.00,0.2750
895.00,0.2746
894.00,0.2740
893.00,0.2733
892.00,0.2726
891.00,0.2716
890.00,0.2705
889.00,0.2691
888.00,0.2673
887.00,0.2650
886.00,0.2623
885.00,0.2594
884.00,0.2565
883.00,0.2538
882.00,0.2514
881.00,0.2496
880.00,0.2483
879.00,0.2475
878.00,0.2472
877.00,0.2470
876.00,0.2468
875.00,0.2464
874.00,0.2457
873.00,0.2447
872.00,0.2435
871.00,0.2423
870.00,0.2410
869.00,0.2398
868.00,0.2388
867.00,0.2382
866.00,0.2380
865.00,0.2380
864.00,0.2381
863.00,0.2379
862.00,0.2372
861.00,0.2359
860.00,0.2341
859.00,0.2321
858.00,0.2300
857.00,0.2279
856.00,0.2258
855.00,0.2238
854.00,0.2219
853.00,0.2200
852.00,0.2180
851.00,0.2159
850.00,0.2140
849.00,0.2123
848.00,0.2112
847.00,0.2110
846.00,0.2115
845.00,0.2117
844.00,0.2104
843.00,0.2074
842.00,0.2034
841.00,0.1996
840.00,0.1963
839.00,0.1935
838.00,0.1910
837.00,0.1887
836.00,0.1866
835.00,0.1845
834.00,0.1824
833.00,0.1805
832.00,0.1787
831.00,0.1769
830.00,0.1753
829.00,0.1739
828.00,0.1726
827.00,0.1716
826.00,0.1708
825.00,0.1700
824.00,0.1690
823.00,0.1675
822.00,0.1655
821.00,0.1630
820.00,0.1604
819.00,0.1577
818.00,0.1552
817.00,0.1529
816.00,0.1507
815.00,0.1487
814.00,0.1468
813.00,0.1450
812.00,0.1433
811.00,0.1416
810.00,0.1400
809.00,0.1385
808.00,0.1371
807.00,0.1357
806.00,0.1344
805.00,0.1331
804.00,0.1319
803.00,0.1306
802.00,0.1297
801.00,0.1293
800.00,0.1298
799.00,0.1310
798.00,0.1322
797.00,0.1327
796.00,0.1329
795.00,0.1341
794.00,0.1382
793.00,0.1461
792.00,0.1575
791.00,0.1710
790.00,0.1855
789.00,0.2010
788.00,0.2187
787.00,0.2402
786.00,0.2656
785.00,0.2929
784.00,0.3180
783.00,0.3360
782.00,0.3437
781.00,0.3404
780.00,0.3276
779.00,0.3083
778.00,0.2854
777.00,0.2616
776.00,0.2395
775.00,0.2211
774.00,0.2069
773.00,0.1963
772.00,0.1886
771.00,0.1826
770.00,0.1779
769.00,0.1738
768.00,0.1700
767.00,0.1664
766.00,0.1629
765.00,0.1595
764.00,0.1563
763.00,0.1534
762.00,0.1507
761.00,0.1481
760.00,0.1455
759.00,0.1430
758.00,0.1405
757.00,0.1381
756.00,0.1358
755.00,0.1338
754.00,0.1320
753.00,0.1304
752.00,0.1290
751.00,0.1277
750.00,0.1265
749.00,0.1252
748.00,0.1239
747.00,0.1224
746.00,0.1211
745.00,0.1200
744.00,0.1191
743.00,0.1183
742.00,0.1172
741.00,0.1157
740.00,0.1138
739.00,0.1120
738.00,0.1104
737.00,0.1092
736.00,0.1084
735.00,0.1079
734.00,0.1077
733.00,0.1079
732.00,0.1085
731.00,0.1095
730.00,0.1110
729.00,0.1132
728.00,0.1160
727.00,0.1196
726.00,0.1237
725.00,0.1280
724.00,0.1316
723.00,0.1338
722.00,0.1338
721.00,0.1315
720.00,0.1273
719.00,0.1222
718.00,0.1169
717.00,0.1120
716.00,0.1077
715.00,0.1037
714.00,0.1002
713.00,0.0970
712.00,0.0941
711.00,0.0915
710.00,0.0891
709.00,0.0869
708.00,0.0849
707.00,0.0830
706.00,0.0814
705.00,0.0799
704.00,0.0786
703.00,0.0775
702.00,0.0765
701.00,0.0756
700.00,0.0748
699.00,0.0742
698.00,0.0738
697.00,0.0734
696.00,0.0731
695.00,0.0729
694.00,0.0727
693.00,0.0726
692.00,0.0726
691.00,0.0727
690.00,0.0730
689.00,0.0733
688.00,0.0738
687.00,0.0741
686.00,0.0743
685.00,0.0743
684.00,0.0740
683.00,0.0736
682.00,0.0730
681.00,0.0723
680.00,0.0715
679.00,0.0707
678.00,0.0699
677.00,0.0690
676.00,0.0681
675.00,0.0672
674.00,0.0664
673.00,0.0656
672.00,0.0648
671.00,0.0640
670.00,0.0633
669.00,0.0628
668.00,0.0625
667.00,0.0624
666.00,0.0620
665.00,0.0614
664.00,0.0610
663.00,0.0611
662.00,0.0616
661.00,0.0626
660.00,0.0641
659.00,0.0664
658.00,0.0697
657.00,0.0745
656.00,0.0815
655.00,0.0918
654.00,0.1060
653.00,0.1249
652.00,0.1486
651.00,0.1759
650.00,0.2053
649.00,0.2348
648.00,0.2620
647.00,0.2841
646.00,0.2984
645.00,0.3046
644.00,0.3035
643.00,0.2965
642.00,0.2855
641.00,0.2727
640.00,0.2595
639.00,0.2464
638.00,0.2337
637.00,0.2218
636.00,0.2109
635.00,0.2007
634.00,0.1909
633.00,0.1813
632.00,0.1722
631.00,0.1633
630.00,0.1547
629.00,0.1466
628.00,0.1391
627.00,0.1325
626.00,0.1266
625.00,0.1217
624.00,0.1175
623.00,0.1139
622.00,0.1111
621.00,0.1103
620.00,0.1128
619.00,0.1180
618.00,0.1232
617.00,0.1251
616.00,0.1226
615.00,0.1175
614.00,0.1124
613.00,0.1085
612.00,0.1057
611.00,0.1035
610.00,0.1017
609.00,0.1004
608.00,0.0993
607.00,0.0982
606.00,0.0972
605.00,0.0961
604.00,0.0950
603.00,0.0940
602.00,0.0930
601.00,0.0924
600.00,0.0921
599.00,0.0922
598.00,0.0927
597.00,0.0938
596.00,0.0955
595.00,0.0979
594.00,0.1010
593.00,0.1049
592.00,0.1100
591.00,0.1163
590.00,0.1245
589.00,0.1347
588.00,0.1472
587.00,0.1619
586.00,0.1785
585.00,0.1963
584.00,0.2144
583.00,0.2314
582.00,0.2462
581.00,0.2580
580.00,0.2660
579.00,0.2701
578.00,0.2705
577.00,0.2681
576.00,0.2637
575.00,0.2577
574.00,0.2504
573.00,0.2427
572.00,0.2350
571.00,0.2275
570.00,0.2201
569.00,0.2130
568.00,0.2063
567.00,0.1998
566.00,0.1936
565.00,0.1879
564.00,0.1825
563.00,0.1772
562.00,0.1723
561.00,0.1676
560.00,0.1633
559.00,0.1591
558.00,0.1551
557.00,0.1512
556.00,0.1475
555.00,0.1441
554.00,0.1409
553.00,0.1379
552.00,0.1353
551.00,0.1329
550.00,0.1307
549.00,0.1287
548.00,0.1269
547.00,0.1251
546.00,0.1234
545.00,0.1218
544.00,0.1202
543.00,0.1186
542.00,0.1171
541.00,0.1156
540.00,0.1140
539.00,0.1122
538.00,0.1104
537.00,0.1085
536.00,0.1066
535.00,0.1048
534.00,0.1030
533.00,0.1015
532.00,0.0999
531.00,0.0984
530.00,0.0970
529.00,0.0956
528.00,0.0943
527.00,0.0932
526.00,0.0923
525.00,0.0913
524.00,0.0902
523.00,0.0890
522.00,0.0881
521.00,0.0874
520.00,0.0868
519.00,0.0863
518.00,0.0857
517.00,0.0850
516.00,0.0843
515.00,0.0836
514.00,0.0830
513.00,0.0825
512.00,0.0820
511.00,0.0816
510.00,0.0813
509.00,0.0810
508.00,0.0808
507.00,0.0806
506.00,0.0804
505.00,0.0803
504.00,0.0802
503.00,0.0801
502.00,0.0800
501.00,0.0798
500.00,0.0795
499.00,0.0793
498.00,0.0792
497.00,0.0791
496.00,0.0790
495.00,0.0792
494.00,0.0796
493.00,0.0801
492.00,0.0805
491.00,0.0810
490.00,0.0819
489.00,0.0835
488.00,0.0864
487.00,0.0913
486.00,0.0989
485.00,0.1095
484.00,0.1225
483.00,0.1366
482.00,0.1499
481.00,0.1612
480.00,0.1707
479.00,0.1795
478.00,0.1870
477.00,0.1910
476.00,0.1890
475.00,0.1820
474.00,0.1738
473.00,0.1676
472.00,0.1631
471.00,0.1577
470.00,0.1504
469.00,0.1425
468.00,0.1358
467.00,0.1311
466.00,0.1282
465.00,0.1264
464.00,0.1252
463.00,0.1246
462.00,0.1244
461.00,0.1247
460.00,0.1253
459.00,0.1262
458.00,0.1277
457.00,0.1298
456.00,0.1323
455.00,0.1351
454.00,0.1380
453.00,0.1408
452.00,0.1435
451.00,0.1459
450.00,0.1479
449.00,0.1493
448.00,0.1500
447.00,0.1501
446.00,0.1493
445.00,0.1477
444.00,0.1451
443.00,0.1419
442.00,0.1385
441.00,0.1354
440.00,0.1326
439.00,0.1302
438.00,0.1277
437.00,0.1251
436.00,0.1221
435.00,0.1188
434.00,0.1155
433.00,0.1124
432.00,0.1096
431.00,0.1071
430.00,0.1048
429.00,0.1025
428.00,0.1003
427.00,0.0984
426.00,0.0967
425.00,0.0949
424.00,0.0931
423.00,0.0915
422.00,0.0903
421.00,0.0896
420.00,0.0895
419.00,0.0899
418.00,0.0902
417.00,0.0902
416.00,0.0897
415.00,0.0889
414.00,0.0879
413.00,0.0867
412.00,0.0859
411.00,0.0857
410.00,0.0864
409.00,0.0876
408.00,0.0887
407.00,0.0897
406.00,0.0907
405.00,0.0913
404.00,0.0914
403.00,0.0905
402.00,0.0891
401.00,0.0873
400.00,0.0852
