Created as New Dataset,Sample 852 By YargerLab Date Saturday, April 18 2026
cm-1,A
4000.00,0.0046
3999.00,0.0046
3998.00,0.0046
3997.00,0.0046
3996.00,0.0046
3995.00,0.0046
3994.00,0.0046
3993.00,0.0046
3992.00,0.0046
3991.00,0.0046
3990.00,0.0046
3989.00,0.0046
3988.00,0.0046
3987.00,0.0046
3986.00,0.0046
3985.00,0.0046
3984.00,0.0046
3983.00,0.0046
3982.00,0.0046
3981.00,0.0046
3980.00,0.0046
3979.00,0.0046
3978.00,0.0046
3977.00,0.0046
3976.00,0.0046
3975.00,0.0046
3974.00,0.0046
3973.00,0.0046
3972.00,0.0046
3971.00,0.0047
3970.00,0.0047
3969.00,0.0047
3968.00,0.0046
3967.00,0.0046
3966.00,0.0046
3965.00,0.0046
3964.00,0.0046
3963.00,0.0046
3962.00,0.0046
3961.00,0.0046
3960.00,0.0046
3959.00,0.0045
3958.00,0.0045
3957.00,0.0045
3956.00,0.0045
3955.00,0.0045
3954.00,0.0046
3953.00,0.0046
3952.00,0.0046
3951.00,0.0046
3950.00,0.0046
3949.00,0.0045
3948.00,0.0045
3947.00,0.0045
3946.00,0.0045
3945.00,0.0046
3944.00,0.0046
3943.00,0.0046
3942.00,0.0046
3941.00,0.0045
3940.00,0.0045
3939.00,0.0045
3938.00,0.0045
3937.00,0.0045
3936.00,0.0045
3935.00,0.0045
3934.00,0.0045
3933.00,0.0045
3932.00,0.0045
3931.00,0.0045
3930.00,0.0045
3929.00,0.0045
3928.00,0.0045
3927.00,0.0045
3926.00,0.0045
3925.00,0.0045
3924.00,0.0045
3923.00,0.0045
3922.00,0.0045
3921.00,0.0045
3920.00,0.0045
3919.00,0.0045
3918.00,0.0045
3917.00,0.0045
3916.00,0.0045
3915.00,0.0045
3914.00,0.0045
3913.00,0.0045
3912.00,0.0045
3911.00,0.0045
3910.00,0.0045
3909.00,0.0045
3908.00,0.0045
3907.00,0.0045
3906.00,0.0044
3905.00,0.0044
3904.00,0.0044
3903.00,0.0044
3902.00,0.0044
3901.00,0.0044
3900.00,0.0044
3899.00,0.0044
3898.00,0.0044
3897.00,0.0044
3896.00,0.0044
3895.00,0.0044
3894.00,0.0044
3893.00,0.0044
3892.00,0.0044
3891.00,0.0044
3890.00,0.0044
3889.00,0.0044
3888.00,0.0044
3887.00,0.0044
3886.00,0.0044
3885.00,0.0044
3884.00,0.0044
3883.00,0.0044
3882.00,0.0044
3881.00,0.0044
3880.00,0.0044
3879.00,0.0044
3878.00,0.0044
3877.00,0.0044
3876.00,0.0043
3875.00,0.0043
3874.00,0.0044
3873.00,0.0044
3872.00,0.0044
3871.00,0.0044
3870.00,0.0044
3869.00,0.0045
3868.00,0.0045
3867.00,0.0044
3866.00,0.0044
3865.00,0.0044
3864.00,0.0044
3863.00,0.0044
3862.00,0.0044
3861.00,0.0044
3860.00,0.0044
3859.00,0.0044
3858.00,0.0044
3857.00,0.0044
3856.00,0.0043
3855.00,0.0043
3854.00,0.0043
3853.00,0.0043
3852.00,0.0043
3851.00,0.0043
3850.00,0.0043
3849.00,0.0043
3848.00,0.0043
3847.00,0.0043
3846.00,0.0044
3845.00,0.0044
3844.00,0.0044
3843.00,0.0043
3842.00,0.0043
3841.00,0.0043
3840.00,0.0042
3839.00,0.0042
3838.00,0.0042
3837.00,0.0042
3836.00,0.0042
3835.00,0.0042
3834.00,0.0042
3833.00,0.0042
3832.00,0.0042
3831.00,0.0042
3830.00,0.0042
3829.00,0.0042
3828.00,0.0042
3827.00,0.0042
3826.00,0.0043
3825.00,0.0043
3824.00,0.0043
3823.00,0.0043
3822.00,0.0043
3821.00,0.0043
3820.00,0.0043
3819.00,0.0043
3818.00,0.0043
3817.00,0.0043
3816.00,0.0043
3815.00,0.0043
3814.00,0.0043
3813.00,0.0042
3812.00,0.0042
3811.00,0.0042
3810.00,0.0042
3809.00,0.0042
3808.00,0.0042
3807.00,0.0042
3806.00,0.0042
3805.00,0.0042
3804.00,0.0042
3803.00,0.0041
3802.00,0.0041
3801.00,0.0042
3800.00,0.0042
3799.00,0.0041
3798.00,0.0041
3797.00,0.0041
3796.00,0.0041
3795.00,0.0041
3794.00,0.0042
3793.00,0.0042
3792.00,0.0042
3791.00,0.0042
3790.00,0.0042
3789.00,0.0042
3788.00,0.0042
3787.00,0.0042
3786.00,0.0042
3785.00,0.0042
3784.00,0.0042
3783.00,0.0042
3782.00,0.0042
3781.00,0.0042
3780.00,0.0042
3779.00,0.0042
3778.00,0.0042
3777.00,0.0042
3776.00,0.0042
3775.00,0.0042
3774.00,0.0042
3773.00,0.0042
3772.00,0.0042
3771.00,0.0042
3770.00,0.0042
3769.00,0.0042
3768.00,0.0042
3767.00,0.0042
3766.00,0.0042
3765.00,0.0042
3764.00,0.0042
3763.00,0.0042
3762.00,0.0042
3761.00,0.0041
3760.00,0.0041
3759.00,0.0041
3758.00,0.0041
3757.00,0.0041
3756.00,0.0041
3755.00,0.0042
3754.00,0.0042
3753.00,0.0042
3752.00,0.0041
3751.00,0.0041
3750.00,0.0041
3749.00,0.0040
3748.00,0.0040
3747.00,0.0040
3746.00,0.0040
3745.00,0.0040
3744.00,0.0040
3743.00,0.0041
3742.00,0.0041
3741.00,0.0041
3740.00,0.0041
3739.00,0.0041
3738.00,0.0041
3737.00,0.0041
3736.00,0.0040
3735.00,0.0040
3734.00,0.0040
3733.00,0.0040
3732.00,0.0040
3731.00,0.0040
3730.00,0.0040
3729.00,0.0040
3728.00,0.0040
3727.00,0.0040
3726.00,0.0040
3725.00,0.0039
3724.00,0.0039
3723.00,0.0039
3722.00,0.0039
3721.00,0.0039
3720.00,0.0039
3719.00,0.0039
3718.00,0.0039
3717.00,0.0039
3716.00,0.0039
3715.00,0.0039
3714.00,0.0039
3713.00,0.0039
3712.00,0.0039
3711.00,0.0039
3710.00,0.0039
3709.00,0.0039
3708.00,0.0039
3707.00,0.0039
3706.00,0.0039
3705.00,0.0038
3704.00,0.0038
3703.00,0.0038
3702.00,0.0038
3701.00,0.0038
3700.00,0.0038
3699.00,0.0038
3698.00,0.0038
3697.00,0.0038
3696.00,0.0038
3695.00,0.0038
3694.00,0.0038
3693.00,0.0038
3692.00,0.0038
3691.00,0.0038
3690.00,0.0037
3689.00,0.0037
3688.00,0.0037
3687.00,0.0037
3686.00,0.0037
3685.00,0.0037
3684.00,0.0036
3683.00,0.0036
3682.00,0.0036
3681.00,0.0036
3680.00,0.0036
3679.00,0.0036
3678.00,0.0036
3677.00,0.0035
3676.00,0.0035
3675.00,0.0035
3674.00,0.0035
3673.00,0.0035
3672.00,0.0035
3671.00,0.0035
3670.00,0.0035
3669.00,0.0035
3668.00,0.0035
3667.00,0.0035
3666.00,0.0035
3665.00,0.0035
3664.00,0.0035
3663.00,0.0035
3662.00,0.0035
3661.00,0.0035
3660.00,0.0035
3659.00,0.0035
3658.00,0.0035
3657.00,0.0035
3656.00,0.0035
3655.00,0.0035
3654.00,0.0035
3653.00,0.0035
3652.00,0.0035
3651.00,0.0034
3650.00,0.0034
3649.00,0.0034
3648.00,0.0034
3647.00,0.0034
3646.00,0.0034
3645.00,0.0034
3644.00,0.0035
3643.00,0.0035
3642.00,0.0035
3641.00,0.0035
3640.00,0.0035
3639.00,0.0035
3638.00,0.0035
3637.00,0.0035
3636.00,0.0036
3635.00,0.0036
3634.00,0.0036
3633.00,0.0037
3632.00,0.0037
3631.00,0.0037
3630.00,0.0037
3629.00,0.0037
3628.00,0.0038
3627.00,0.0038
3626.00,0.0037
3625.00,0.0037
3624.00,0.0037
3623.00,0.0038
3622.00,0.0038
3621.00,0.0038
3620.00,0.0038
3619.00,0.0039
3618.00,0.0039
3617.00,0.0039
3616.00,0.0039
3615.00,0.0039
3614.00,0.0039
3613.00,0.0040
3612.00,0.0040
3611.00,0.0040
3610.00,0.0040
3609.00,0.0040
3608.00,0.0040
3607.00,0.0040
3606.00,0.0041
3605.00,0.0041
3604.00,0.0041
3603.00,0.0041
3602.00,0.0041
3601.00,0.0041
3600.00,0.0041
3599.00,0.0041
3598.00,0.0041
3597.00,0.0042
3596.00,0.0042
3595.00,0.0042
3594.00,0.0043
3593.00,0.0043
3592.00,0.0044
3591.00,0.0044
3590.00,0.0044
3589.00,0.0044
3588.00,0.0044
3587.00,0.0045
3586.00,0.0046
3585.00,0.0047
3584.00,0.0048
3583.00,0.0049
3582.00,0.0051
3581.00,0.0052
3580.00,0.0054
3579.00,0.0056
3578.00,0.0058
3577.00,0.0060
3576.00,0.0063
3575.00,0.0066
3574.00,0.0069
3573.00,0.0074
3572.00,0.0079
3571.00,0.0085
3570.00,0.0092
3569.00,0.0099
3568.00,0.0108
3567.00,0.0118
3566.00,0.0127
3565.00,0.0135
3564.00,0.0142
3563.00,0.0148
3562.00,0.0153
3561.00,0.0155
3560.00,0.0156
3559.00,0.0155
3558.00,0.0152
3557.00,0.0148
3556.00,0.0143
3555.00,0.0138
3554.00,0.0133
3553.00,0.0127
3552.00,0.0122
3551.00,0.0117
3550.00,0.0112
3549.00,0.0107
3548.00,0.0103
3547.00,0.0099
3546.00,0.0095
3545.00,0.0092
3544.00,0.0090
3543.00,0.0087
3542.00,0.0086
3541.00,0.0084
3540.00,0.0083
3539.00,0.0082
3538.00,0.0081
3537.00,0.0081
3536.00,0.0080
3535.00,0.0079
3534.00,0.0079
3533.00,0.0079
3532.00,0.0079
3531.00,0.0079
3530.00,0.0080
3529.00,0.0080
3528.00,0.0080
3527.00,0.0081
3526.00,0.0081
3525.00,0.0081
3524.00,0.0082
3523.00,0.0082
3522.00,0.0083
3521.00,0.0084
3520.00,0.0085
3519.00,0.0086
3518.00,0.0087
3517.00,0.0088
3516.00,0.0089
3515.00,0.0090
3514.00,0.0091
3513.00,0.0092
3512.00,0.0093
3511.00,0.0094
3510.00,0.0095
3509.00,0.0096
3508.00,0.0097
3507.00,0.0098
3506.00,0.0099
3505.00,0.0100
3504.00,0.0101
3503.00,0.0103
3502.00,0.0104
3501.00,0.0105
3500.00,0.0107
3499.00,0.0108
3498.00,0.0109
3497.00,0.0111
3496.00,0.0112
3495.00,0.0113
3494.00,0.0115
3493.00,0.0116
3492.00,0.0118
3491.00,0.0119
3490.00,0.0121
3489.00,0.0122
3488.00,0.0123
3487.00,0.0124
3486.00,0.0126
3485.00,0.0127
3484.00,0.0129
3483.00,0.0130
3482.00,0.0132
3481.00,0.0133
3480.00,0.0135
3479.00,0.0136
3478.00,0.0138
3477.00,0.0139
3476.00,0.0140
3475.00,0.0142
3474.00,0.0143
3473.00,0.0144
3472.00,0.0145
3471.00,0.0147
3470.00,0.0148
3469.00,0.0149
3468.00,0.0150
3467.00,0.0151
3466.00,0.0152
3465.00,0.0154
3464.00,0.0155
3463.00,0.0156
3462.00,0.0157
3461.00,0.0159
3460.00,0.0160
3459.00,0.0161
3458.00,0.0163
3457.00,0.0164
3456.00,0.0166
3455.00,0.0167
3454.00,0.0169
3453.00,0.0170
3452.00,0.0172
3451.00,0.0174
3450.00,0.0176
3449.00,0.0178
3448.00,0.0180
3447.00,0.0182
3446.00,0.0184
3445.00,0.0187
3444.00,0.0189
3443.00,0.0192
3442.00,0.0194
3441.00,0.0197
3440.00,0.0200
3439.00,0.0203
3438.00,0.0206
3437.00,0.0209
3436.00,0.0212
3435.00,0.0216
3434.00,0.0219
3433.00,0.0223
3432.00,0.0227
3431.00,0.0231
3430.00,0.0235
3429.00,0.0239
3428.00,0.0242
3427.00,0.0246
3426.00,0.0250
3425.00,0.0253
3424.00,0.0256
3423.00,0.0260
3422.00,0.0263
3421.00,0.0266
3420.00,0.0269
3419.00,0.0272
3418.00,0.0275
3417.00,0.0278
3416.00,0.0280
3415.00,0.0283
3414.00,0.0285
3413.00,0.0287
3412.00,0.0289
3411.00,0.0291
3410.00,0.0293
3409.00,0.0295
3408.00,0.0297
3407.00,0.0299
3406.00,0.0301
3405.00,0.0303
3404.00,0.0305
3403.00,0.0308
3402.00,0.0311
3401.00,0.0313
3400.00,0.0317
3399.00,0.0320
3398.00,0.0324
3397.00,0.0328
3396.00,0.0332
3395.00,0.0337
3394.00,0.0342
3393.00,0.0347
3392.00,0.0352
3391.00,0.0357
3390.00,0.0361
3389.00,0.0366
3388.00,0.0370
3387.00,0.0373
3386.00,0.0376
3385.00,0.0378
3384.00,0.0379
3383.00,0.0380
3382.00,0.0380
3381.00,0.0379
3380.00,0.0378
3379.00,0.0376
3378.00,0.0374
3377.00,0.0372
3376.00,0.0370
3375.00,0.0367
3374.00,0.0364
3373.00,0.0361
3372.00,0.0359
3371.00,0.0357
3370.00,0.0355
3369.00,0.0353
3368.00,0.0351
3367.00,0.0350
3366.00,0.0348
3365.00,0.0347
3364.00,0.0346
3363.00,0.0346
3362.00,0.0346
3361.00,0.0346
3360.00,0.0347
3359.00,0.0348
3358.00,0.0349
3357.00,0.0350
3356.00,0.0351
3355.00,0.0352
3354.00,0.0354
3353.00,0.0356
3352.00,0.0358
3351.00,0.0360
3350.00,0.0363
3349.00,0.0365
3348.00,0.0367
3347.00,0.0370
3346.00,0.0373
3345.00,0.0375
3344.00,0.0378
3343.00,0.0380
3342.00,0.0383
3341.00,0.0385
3340.00,0.0388
3339.00,0.0390
3338.00,0.0393
3337.00,0.0395
3336.00,0.0396
3335.00,0.0398
3334.00,0.0399
3333.00,0.0401
3332.00,0.0402
3331.00,0.0403
3330.00,0.0404
3329.00,0.0404
3328.00,0.0405
3327.00,0.0405
3326.00,0.0406
3325.00,0.0405
3324.00,0.0405
3323.00,0.0405
3322.00,0.0405
3321.00,0.0404
3320.00,0.0404
3319.00,0.0404
3318.00,0.0403
3317.00,0.0403
3316.00,0.0402
3315.00,0.0402
3314.00,0.0401
3313.00,0.0400
3312.00,0.0400
3311.00,0.0399
3310.00,0.0398
3309.00,0.0398
3308.00,0.0397
3307.00,0.0397
3306.00,0.0396
3305.00,0.0394
3304.00,0.0393
3303.00,0.0392
3302.00,0.0391
3301.00,0.0390
3300.00,0.0389
3299.00,0.0389
3298.00,0.0388
3297.00,0.0387
3296.00,0.0386
3295.00,0.0385
3294.00,0.0384
3293.00,0.0383
3292.00,0.0382
3291.00,0.0381
3290.00,0.0379
3289.00,0.0378
3288.00,0.0377
3287.00,0.0376
3286.00,0.0374
3285.00,0.0373
3284.00,0.0372
3283.00,0.0370
3282.00,0.0369
3281.00,0.0368
3280.00,0.0367
3279.00,0.0366
3278.00,0.0365
3277.00,0.0364
3276.00,0.0363
3275.00,0.0363
3274.00,0.0362
3273.00,0.0361
3272.00,0.0360
3271.00,0.0359
3270.00,0.0357
3269.00,0.0356
3268.00,0.0355
3267.00,0.0355
3266.00,0.0354
3265.00,0.0353
3264.00,0.0352
3263.00,0.0352
3262.00,0.0351
3261.00,0.0351
3260.00,0.0350
3259.00,0.0350
3258.00,0.0349
3257.00,0.0348
3256.00,0.0348
3255.00,0.0347
3254.00,0.0346
3253.00,0.0345
3252.00,0.0344
3251.00,0.0344
3250.00,0.0343
3249.00,0.0343
3248.00,0.0343
3247.00,0.0343
3246.00,0.0342
3245.00,0.0342
3244.00,0.0341
3243.00,0.0340
3242.00,0.0340
3241.00,0.0339
3240.00,0.0339
3239.00,0.0339
3238.00,0.0338
3237.00,0.0337
3236.00,0.0337
3235.00,0.0336
3234.00,0.0334
3233.00,0.0333
3232.00,0.0332
3231.00,0.0331
3230.00,0.0329
3229.00,0.0328
3228.00,0.0327
3227.00,0.0325
3226.00,0.0323
3225.00,0.0322
3224.00,0.0320
3223.00,0.0318
3222.00,0.0316
3221.00,0.0314
3220.00,0.0312
3219.00,0.0310
3218.00,0.0308
3217.00,0.0306
3216.00,0.0304
3215.00,0.0301
3214.00,0.0299
3213.00,0.0296
3212.00,0.0294
3211.00,0.0292
3210.00,0.0289
3209.00,0.0287
3208.00,0.0285
3207.00,0.0282
3206.00,0.0280
3205.00,0.0277
3204.00,0.0275
3203.00,0.0272
3202.00,0.0270
3201.00,0.0268
3200.00,0.0265
3199.00,0.0263
3198.00,0.0261
3197.00,0.0259
3196.00,0.0257
3195.00,0.0255
3194.00,0.0253
3193.00,0.0250
3192.00,0.0248
3191.00,0.0246
3190.00,0.0244
3189.00,0.0242
3188.00,0.0240
3187.00,0.0238
3186.00,0.0236
3185.00,0.0234
3184.00,0.0232
3183.00,0.0230
3182.00,0.0228
3181.00,0.0226
3180.00,0.0224
3179.00,0.0222
3178.00,0.0221
3177.00,0.0219
3176.00,0.0217
3175.00,0.0216
3174.00,0.0214
3173.00,0.0212
3172.00,0.0211
3171.00,0.0209
3170.00,0.0208
3169.00,0.0207
3168.00,0.0205
3167.00,0.0203
3166.00,0.0202
3165.00,0.0200
3164.00,0.0198
3163.00,0.0197
3162.00,0.0195
3161.00,0.0194
3160.00,0.0192
3159.00,0.0191
3158.00,0.0190
3157.00,0.0189
3156.00,0.0187
3155.00,0.0186
3154.00,0.0184
3153.00,0.0183
3152.00,0.0182
3151.00,0.0181
3150.00,0.0179
3149.00,0.0178
3148.00,0.0177
3147.00,0.0175
3146.00,0.0174
3145.00,0.0173
3144.00,0.0172
3143.00,0.0171
3142.00,0.0170
3141.00,0.0168
3140.00,0.0167
3139.00,0.0166
3138.00,0.0165
3137.00,0.0164
3136.00,0.0162
3135.00,0.0161
3134.00,0.0160
3133.00,0.0159
3132.00,0.0159
3131.00,0.0158
3130.00,0.0157
3129.00,0.0156
3128.00,0.0154
3127.00,0.0153
3126.00,0.0152
3125.00,0.0152
3124.00,0.0151
3123.00,0.0150
3122.00,0.0149
3121.00,0.0148
3120.00,0.0147
3119.00,0.0146
3118.00,0.0145
3117.00,0.0144
3116.00,0.0144
3115.00,0.0143
3114.00,0.0142
3113.00,0.0142
3112.00,0.0141
3111.00,0.0140
3110.00,0.0139
3109.00,0.0138
3108.00,0.0137
3107.00,0.0136
3106.00,0.0136
3105.00,0.0135
3104.00,0.0134
3103.00,0.0133
3102.00,0.0133
3101.00,0.0132
3100.00,0.0131
3099.00,0.0131
3098.00,0.0130
3097.00,0.0130
3096.00,0.0129
3095.00,0.0128
3094.00,0.0127
3093.00,0.0127
3092.00,0.0126
3091.00,0.0125
3090.00,0.0124
3089.00,0.0123
3088.00,0.0123
3087.00,0.0122
3086.00,0.0121
3085.00,0.0121
3084.00,0.0120
3083.00,0.0119
3082.00,0.0119
3081.00,0.0118
3080.00,0.0118
3079.00,0.0117
3078.00,0.0116
3077.00,0.0116
3076.00,0.0115
3075.00,0.0115
3074.00,0.0114
3073.00,0.0114
3072.00,0.0114
3071.00,0.0113
3070.00,0.0113
3069.00,0.0112
3068.00,0.0111
3067.00,0.0111
3066.00,0.0110
3065.00,0.0110
3064.00,0.0109
3063.00,0.0108
3062.00,0.0108
3061.00,0.0108
3060.00,0.0107
3059.00,0.0107
3058.00,0.0107
3057.00,0.0106
3056.00,0.0106
3055.00,0.0105
3054.00,0.0105
3053.00,0.0105
3052.00,0.0104
3051.00,0.0104
3050.00,0.0103
3049.00,0.0103
3048.00,0.0102
3047.00,0.0102
3046.00,0.0102
3045.00,0.0101
3044.00,0.0101
3043.00,0.0101
3042.00,0.0100
3041.00,0.0100
3040.00,0.0100
3039.00,0.0100
3038.00,0.0099
3037.00,0.0099
3036.00,0.0098
3035.00,0.0097
3034.00,0.0097
3033.00,0.0097
3032.00,0.0097
3031.00,0.0096
3030.00,0.0096
3029.00,0.0096
3028.00,0.0096
3027.00,0.0096
3026.00,0.0096
3025.00,0.0096
3024.00,0.0096
3023.00,0.0096
3022.00,0.0096
3021.00,0.0096
3020.00,0.0096
3019.00,0.0097
3018.00,0.0097
3017.00,0.0097
3016.00,0.0098
3015.00,0.0098
3014.00,0.0098
3013.00,0.0097
3012.00,0.0096
3011.00,0.0094
3010.00,0.0092
3009.00,0.0090
3008.00,0.0088
3007.00,0.0087
3006.00,0.0085
3005.00,0.0084
3004.00,0.0084
3003.00,0.0083
3002.00,0.0084
3001.00,0.0084
3000.00,0.0086
2999.00,0.0088
2998.00,0.0090
2997.00,0.0093
2996.00,0.0095
2995.00,0.0097
2994.00,0.0096
2993.00,0.0095
2992.00,0.0092
2991.00,0.0090
2990.00,0.0088
2989.00,0.0087
2988.00,0.0087
2987.00,0.0087
2986.00,0.0087
2985.00,0.0086
2984.00,0.0083
2983.00,0.0080
2982.00,0.0077
2981.00,0.0075
2980.00,0.0075
2979.00,0.0076
2978.00,0.0077
2977.00,0.0080
2976.00,0.0085
2975.00,0.0090
2974.00,0.0097
2973.00,0.0102
2972.00,0.0106
2971.00,0.0107
2970.00,0.0105
2969.00,0.0101
2968.00,0.0098
2967.00,0.0095
2966.00,0.0093
2965.00,0.0092
2964.00,0.0092
2963.00,0.0094
2962.00,0.0095
2961.00,0.0097
2960.00,0.0099
2959.00,0.0100
2958.00,0.0101
2957.00,0.0102
2956.00,0.0102
2955.00,0.0103
2954.00,0.0104
2953.00,0.0106
2952.00,0.0109
2951.00,0.0113
2950.00,0.0118
2949.00,0.0126
2948.00,0.0135
2947.00,0.0145
2946.00,0.0155
2945.00,0.0164
2944.00,0.0171
2943.00,0.0176
2942.00,0.0178
2941.00,0.0178
2940.00,0.0178
2939.00,0.0176
2938.00,0.0174
2937.00,0.0173
2936.00,0.0172
2935.00,0.0172
2934.00,0.0171
2933.00,0.0170
2932.00,0.0168
2931.00,0.0164
2930.00,0.0160
2929.00,0.0155
2928.00,0.0150
2927.00,0.0146
2926.00,0.0142
2925.00,0.0139
2924.00,0.0137
2923.00,0.0136
2922.00,0.0136
2921.00,0.0137
2920.00,0.0139
2919.00,0.0142
2918.00,0.0147
2917.00,0.0152
2916.00,0.0158
2915.00,0.0162
2914.00,0.0164
2913.00,0.0164
2912.00,0.0161
2911.00,0.0157
2910.00,0.0152
2909.00,0.0147
2908.00,0.0143
2907.00,0.0140
2906.00,0.0138
2905.00,0.0137
2904.00,0.0136
2903.00,0.0136
2902.00,0.0136
2901.00,0.0138
2900.00,0.0139
2899.00,0.0141
2898.00,0.0142
2897.00,0.0143
2896.00,0.0143
2895.00,0.0143
2894.00,0.0142
2893.00,0.0140
2892.00,0.0139
2891.00,0.0137
2890.00,0.0135
2889.00,0.0133
2888.00,0.0131
2887.00,0.0130
2886.00,0.0129
2885.00,0.0128
2884.00,0.0126
2883.00,0.0125
2882.00,0.0125
2881.00,0.0124
2880.00,0.0124
2879.00,0.0124
2878.00,0.0123
2877.00,0.0123
2876.00,0.0122
2875.00,0.0122
2874.00,0.0121
2873.00,0.0120
2872.00,0.0120
2871.00,0.0120
2870.00,0.0119
2869.00,0.0118
2868.00,0.0118
2867.00,0.0117
2866.00,0.0116
2865.00,0.0116
2864.00,0.0115
2863.00,0.0115
2862.00,0.0114
2861.00,0.0114
2860.00,0.0114
2859.00,0.0113
2858.00,0.0113
2857.00,0.0113
2856.00,0.0113
2855.00,0.0112
2854.00,0.0112
2853.00,0.0111
2852.00,0.0111
2851.00,0.0111
2850.00,0.0110
2849.00,0.0110
2848.00,0.0110
2847.00,0.0110
2846.00,0.0110
2845.00,0.0110
2844.00,0.0109
2843.00,0.0109
2842.00,0.0109
2841.00,0.0109
2840.00,0.0109
2839.00,0.0109
2838.00,0.0109
2837.00,0.0109
2836.00,0.0109
2835.00,0.0108
2834.00,0.0108
2833.00,0.0108
2832.00,0.0108
2831.00,0.0108
2830.00,0.0108
2829.00,0.0108
2828.00,0.0108
2827.00,0.0108
2826.00,0.0107
2825.00,0.0107
2824.00,0.0107
2823.00,0.0106
2822.00,0.0106
2821.00,0.0106
2820.00,0.0105
2819.00,0.0105
2818.00,0.0104
2817.00,0.0104
2816.00,0.0103
2815.00,0.0103
2814.00,0.0103
2813.00,0.0102
2812.00,0.0102
2811.00,0.0102
2810.00,0.0101
2809.00,0.0101
2808.00,0.0100
2807.00,0.0100
2806.00,0.0100
2805.00,0.0100
2804.00,0.0099
2803.00,0.0099
2802.00,0.0099
2801.00,0.0099
2800.00,0.0098
2799.00,0.0098
2798.00,0.0098
2797.00,0.0098
2796.00,0.0097
2795.00,0.0097
2794.00,0.0097
2793.00,0.0097
2792.00,0.0096
2791.00,0.0096
2790.00,0.0096
2789.00,0.0095
2788.00,0.0095
2787.00,0.0095
2786.00,0.0095
2785.00,0.0095
2784.00,0.0095
2783.00,0.0095
2782.00,0.0094
2781.00,0.0094
2780.00,0.0094
2779.00,0.0094
2778.00,0.0093
2777.00,0.0093
2776.00,0.0093
2775.00,0.0093
2774.00,0.0093
2773.00,0.0092
2772.00,0.0092
2771.00,0.0092
2770.00,0.0092
2769.00,0.0092
2768.00,0.0092
2767.00,0.0092
2766.00,0.0092
2765.00,0.0091
2764.00,0.0091
2763.00,0.0091
2762.00,0.0091
2761.00,0.0091
2760.00,0.0091
2759.00,0.0091
2758.00,0.0090
2757.00,0.0090
2756.00,0.0090
2755.00,0.0090
2754.00,0.0089
2753.00,0.0089
2752.00,0.0089
2751.00,0.0089
2750.00,0.0089
2749.00,0.0089
2748.00,0.0089
2747.00,0.0089
2746.00,0.0089
2745.00,0.0089
2744.00,0.0089
2743.00,0.0089
2742.00,0.0089
2741.00,0.0089
2740.00,0.0089
2739.00,0.0089
2738.00,0.0089
2737.00,0.0090
2736.00,0.0090
2735.00,0.0091
2734.00,0.0091
2733.00,0.0091
2732.00,0.0092
2731.00,0.0092
2730.00,0.0093
2729.00,0.0093
2728.00,0.0093
2727.00,0.0094
2726.00,0.0094
2725.00,0.0094
2724.00,0.0094
2723.00,0.0094
2722.00,0.0094
2721.00,0.0094
2720.00,0.0094
2719.00,0.0093
2718.00,0.0093
2717.00,0.0092
2716.00,0.0092
2715.00,0.0092
2714.00,0.0092
2713.00,0.0092
2712.00,0.0092
2711.00,0.0092
2710.00,0.0092
2709.00,0.0092
2708.00,0.0091
2707.00,0.0091
2706.00,0.0091
2705.00,0.0090
2704.00,0.0090
2703.00,0.0090
2702.00,0.0090
2701.00,0.0089
2700.00,0.0089
2699.00,0.0089
2698.00,0.0089
2697.00,0.0089
2696.00,0.0088
2695.00,0.0088
2694.00,0.0088
2693.00,0.0087
2692.00,0.0087
2691.00,0.0087
2690.00,0.0087
2689.00,0.0087
2688.00,0.0087
2687.00,0.0086
2686.00,0.0086
2685.00,0.0085
2684.00,0.0085
2683.00,0.0085
2682.00,0.0085
2681.00,0.0084
2680.00,0.0084
2679.00,0.0084
2678.00,0.0084
2677.00,0.0084
2676.00,0.0084
2675.00,0.0084
2674.00,0.0084
2673.00,0.0084
2672.00,0.0083
2671.00,0.0083
2670.00,0.0084
2669.00,0.0084
2668.00,0.0084
2667.00,0.0084
2666.00,0.0085
2665.00,0.0085
2664.00,0.0085
2663.00,0.0086
2662.00,0.0086
2661.00,0.0087
2660.00,0.0087
2659.00,0.0087
2658.00,0.0088
2657.00,0.0088
2656.00,0.0088
2655.00,0.0088
2654.00,0.0088
2653.00,0.0088
2652.00,0.0089
2651.00,0.0089
2650.00,0.0089
2649.00,0.0089
2648.00,0.0089
2647.00,0.0089
2646.00,0.0089
2645.00,0.0089
2644.00,0.0088
2643.00,0.0088
2642.00,0.0088
2641.00,0.0088
2640.00,0.0088
2639.00,0.0088
2638.00,0.0088
2637.00,0.0088
2636.00,0.0087
2635.00,0.0087
2634.00,0.0087
2633.00,0.0087
2632.00,0.0087
2631.00,0.0086
2630.00,0.0086
2629.00,0.0085
2628.00,0.0085
2627.00,0.0085
2626.00,0.0085
2625.00,0.0085
2624.00,0.0084
2623.00,0.0084
2622.00,0.0084
2621.00,0.0084
2620.00,0.0083
2619.00,0.0082
2618.00,0.0082
2617.00,0.0081
2616.00,0.0081
2615.00,0.0081
2614.00,0.0081
2613.00,0.0081
2612.00,0.0080
2611.00,0.0080
2610.00,0.0080
2609.00,0.0079
2608.00,0.0079
2607.00,0.0079
2606.00,0.0079
2605.00,0.0079
2604.00,0.0078
2603.00,0.0078
2602.00,0.0077
2601.00,0.0077
2600.00,0.0077
2599.00,0.0077
2598.00,0.0077
2597.00,0.0077
2596.00,0.0077
2595.00,0.0076
2594.00,0.0076
2593.00,0.0076
2592.00,0.0076
2591.00,0.0076
2590.00,0.0076
2589.00,0.0076
2588.00,0.0076
2587.00,0.0076
2586.00,0.0076
2585.00,0.0076
2584.00,0.0076
2583.00,0.0076
2582.00,0.0076
2581.00,0.0076
2580.00,0.0076
2579.00,0.0076
2578.00,0.0076
2577.00,0.0076
2576.00,0.0076
2575.00,0.0075
2574.00,0.0075
2573.00,0.0075
2572.00,0.0075
2571.00,0.0074
2570.00,0.0074
2569.00,0.0075
2568.00,0.0075
2567.00,0.0075
2566.00,0.0075
2565.00,0.0075
2564.00,0.0075
2563.00,0.0075
2562.00,0.0075
2561.00,0.0074
2560.00,0.0074
2559.00,0.0074
2558.00,0.0074
2557.00,0.0074
2556.00,0.0075
2555.00,0.0075
2554.00,0.0075
2553.00,0.0075
2552.00,0.0075
2551.00,0.0075
2550.00,0.0074
2549.00,0.0074
2548.00,0.0074
2547.00,0.0074
2546.00,0.0073
2545.00,0.0073
2544.00,0.0072
2543.00,0.0072
2542.00,0.0072
2541.00,0.0072
2540.00,0.0072
2539.00,0.0072
2538.00,0.0072
2537.00,0.0071
2536.00,0.0071
2535.00,0.0071
2534.00,0.0071
2533.00,0.0071
2532.00,0.0071
2531.00,0.0071
2530.00,0.0071
2529.00,0.0071
2528.00,0.0070
2527.00,0.0070
2526.00,0.0070
2525.00,0.0069
2524.00,0.0069
2523.00,0.0069
2522.00,0.0069
2521.00,0.0069
2520.00,0.0069
2519.00,0.0069
2518.00,0.0069
2517.00,0.0069
2516.00,0.0069
2515.00,0.0069
2514.00,0.0069
2513.00,0.0069
2512.00,0.0069
2511.00,0.0069
2510.00,0.0069
2509.00,0.0069
2508.00,0.0069
2507.00,0.0069
2506.00,0.0069
2505.00,0.0069
2504.00,0.0069
2503.00,0.0070
2502.00,0.0070
2501.00,0.0070
2500.00,0.0070
2499.00,0.0069
2498.00,0.0069
2497.00,0.0069
2496.00,0.0069
2495.00,0.0069
2494.00,0.0069
2493.00,0.0069
2492.00,0.0069
2491.00,0.0069
2490.00,0.0069
2489.00,0.0069
2488.00,0.0069
2487.00,0.0069
2486.00,0.0069
2485.00,0.0069
2484.00,0.0069
2483.00,0.0069
2482.00,0.0069
2481.00,0.0069
2480.00,0.0069
2479.00,0.0069
2478.00,0.0069
2477.00,0.0069
2476.00,0.0069
2475.00,0.0069
2474.00,0.0069
2473.00,0.0068
2472.00,0.0068
2471.00,0.0068
2470.00,0.0068
2469.00,0.0068
2468.00,0.0068
2467.00,0.0068
2466.00,0.0068
2465.00,0.0068
2464.00,0.0067
2463.00,0.0067
2462.00,0.0067
2461.00,0.0067
2460.00,0.0067
2459.00,0.0067
2458.00,0.0068
2457.00,0.0068
2456.00,0.0068
2455.00,0.0068
2454.00,0.0068
2453.00,0.0068
2452.00,0.0068
2451.00,0.0068
2450.00,0.0067
2449.00,0.0067
2448.00,0.0067
2447.00,0.0067
2446.00,0.0067
2445.00,0.0067
2444.00,0.0067
2443.00,0.0066
2442.00,0.0066
2441.00,0.0066
2440.00,0.0066
2439.00,0.0065
2438.00,0.0065
2437.00,0.0064
2436.00,0.0064
2435.00,0.0064
2434.00,0.0064
2433.00,0.0064
2432.00,0.0064
2431.00,0.0064
2430.00,0.0064
2429.00,0.0064
2428.00,0.0064
2427.00,0.0064
2426.00,0.0063
2425.00,0.0063
2424.00,0.0063
2423.00,0.0062
2422.00,0.0062
2421.00,0.0062
2420.00,0.0061
2419.00,0.0061
2418.00,0.0061
2417.00,0.0061
2416.00,0.0061
2415.00,0.0061
2414.00,0.0062
2413.00,0.0062
2412.00,0.0061
2411.00,0.0061
2410.00,0.0060
2409.00,0.0060
2408.00,0.0060
2407.00,0.0060
2406.00,0.0060
2405.00,0.0060
2404.00,0.0060
2403.00,0.0060
2402.00,0.0060
2401.00,0.0059
2400.00,0.0059
2399.00,0.0059
2398.00,0.0059
2397.00,0.0059
2396.00,0.0058
2395.00,0.0058
2394.00,0.0058
2393.00,0.0058
2392.00,0.0059
2391.00,0.0059
2390.00,0.0059
2389.00,0.0058
2388.00,0.0058
2387.00,0.0058
2386.00,0.0057
2385.00,0.0057
2384.00,0.0057
2383.00,0.0056
2382.00,0.0056
2381.00,0.0055
2380.00,0.0055
2379.00,0.0055
2378.00,0.0055
2377.00,0.0055
2376.00,0.0056
2375.00,0.0056
2374.00,0.0056
2373.00,0.0056
2372.00,0.0055
2371.00,0.0055
2370.00,0.0055
2369.00,0.0055
2368.00,0.0055
2367.00,0.0054
2366.00,0.0054
2365.00,0.0054
2364.00,0.0055
2363.00,0.0055
2362.00,0.0055
2361.00,0.0055
2360.00,0.0056
2359.00,0.0056
2358.00,0.0056
2357.00,0.0056
2356.00,0.0056
2355.00,0.0056
2354.00,0.0056
2353.00,0.0056
2352.00,0.0056
2351.00,0.0056
2350.00,0.0056
2349.00,0.0056
2348.00,0.0056
2347.00,0.0056
2346.00,0.0056
2345.00,0.0056
2344.00,0.0056
2343.00,0.0057
2342.00,0.0058
2341.00,0.0058
2340.00,0.0058
2339.00,0.0058
2338.00,0.0058
2337.00,0.0058
2336.00,0.0058
2335.00,0.0059
2334.00,0.0059
2333.00,0.0058
2332.00,0.0058
2331.00,0.0058
2330.00,0.0058
2329.00,0.0059
2328.00,0.0061
2327.00,0.0064
2326.00,0.0067
2325.00,0.0068
2324.00,0.0068
2323.00,0.0066
2322.00,0.0065
2321.00,0.0064
2320.00,0.0062
2319.00,0.0061
2318.00,0.0061
2317.00,0.0060
2316.00,0.0060
2315.00,0.0060
2314.00,0.0060
2313.00,0.0059
2312.00,0.0059
2311.00,0.0059
2310.00,0.0058
2309.00,0.0058
2308.00,0.0058
2307.00,0.0058
2306.00,0.0058
2305.00,0.0059
2304.00,0.0059
2303.00,0.0059
2302.00,0.0059
2301.00,0.0059
2300.00,0.0059
2299.00,0.0059
2298.00,0.0059
2297.00,0.0060
2296.00,0.0061
2295.00,0.0062
2294.00,0.0063
2293.00,0.0063
2292.00,0.0064
2291.00,0.0064
2290.00,0.0065
2289.00,0.0065
2288.00,0.0066
2287.00,0.0066
2286.00,0.0065
2285.00,0.0065
2284.00,0.0064
2283.00,0.0064
2282.00,0.0063
2281.00,0.0062
2280.00,0.0062
2279.00,0.0061
2278.00,0.0061
2277.00,0.0061
2276.00,0.0060
2275.00,0.0059
2274.00,0.0058
2273.00,0.0058
2272.00,0.0058
2271.00,0.0058
2270.00,0.0058
2269.00,0.0059
2268.00,0.0059
2267.00,0.0059
2266.00,0.0058
2265.00,0.0058
2264.00,0.0058
2263.00,0.0058
2262.00,0.0057
2261.00,0.0057
2260.00,0.0057
2259.00,0.0057
2258.00,0.0057
2257.00,0.0057
2256.00,0.0056
2255.00,0.0055
2254.00,0.0055
2253.00,0.0055
2252.00,0.0055
2251.00,0.0056
2250.00,0.0056
2249.00,0.0056
2248.00,0.0056
2247.00,0.0055
2246.00,0.0056
2245.00,0.0057
2244.00,0.0058
2243.00,0.0058
2242.00,0.0059
2241.00,0.0058
2240.00,0.0058
2239.00,0.0057
2238.00,0.0055
2237.00,0.0055
2236.00,0.0054
2235.00,0.0054
2234.00,0.0055
2233.00,0.0055
2232.00,0.0056
2231.00,0.0056
2230.00,0.0056
2229.00,0.0056
2228.00,0.0056
2227.00,0.0056
2226.00,0.0055
2225.00,0.0054
2224.00,0.0054
2223.00,0.0054
2222.00,0.0055
2221.00,0.0056
2220.00,0.0057
2219.00,0.0057
2218.00,0.0057
2217.00,0.0057
2216.00,0.0057
2215.00,0.0056
2214.00,0.0055
2213.00,0.0055
2212.00,0.0055
2211.00,0.0054
2210.00,0.0053
2209.00,0.0052
2208.00,0.0052
2207.00,0.0053
2206.00,0.0053
2205.00,0.0053
2204.00,0.0053
2203.00,0.0054
2202.00,0.0054
2201.00,0.0054
2200.00,0.0054
2199.00,0.0054
2198.00,0.0055
2197.00,0.0056
2196.00,0.0058
2195.00,0.0059
2194.00,0.0060
2193.00,0.0061
2192.00,0.0061
2191.00,0.0061
2190.00,0.0060
2189.00,0.0058
2188.00,0.0057
2187.00,0.0057
2186.00,0.0057
2185.00,0.0056
2184.00,0.0055
2183.00,0.0053
2182.00,0.0051
2181.00,0.0050
2180.00,0.0050
2179.00,0.0050
2178.00,0.0050
2177.00,0.0049
2176.00,0.0049
2175.00,0.0049
2174.00,0.0050
2173.00,0.0052
2172.00,0.0054
2171.00,0.0056
2170.00,0.0058
2169.00,0.0060
2168.00,0.0060
2167.00,0.0061
2166.00,0.0061
2165.00,0.0062
2164.00,0.0063
2163.00,0.0062
2162.00,0.0056
2161.00,0.0047
2160.00,0.0035
2159.00,0.0026
2158.00,0.0021
2157.00,0.0021
2156.00,0.0024
2155.00,0.0027
2154.00,0.0029
2153.00,0.0032
2152.00,0.0034
2151.00,0.0035
2150.00,0.0035
2149.00,0.0035
2148.00,0.0035
2147.00,0.0035
2146.00,0.0035
2145.00,0.0036
2144.00,0.0036
2143.00,0.0035
2142.00,0.0035
2141.00,0.0034
2140.00,0.0034
2139.00,0.0034
2138.00,0.0034
2137.00,0.0032
2136.00,0.0031
2135.00,0.0030
2134.00,0.0030
2133.00,0.0031
2132.00,0.0033
2131.00,0.0035
2130.00,0.0037
2129.00,0.0038
2128.00,0.0038
2127.00,0.0038
2126.00,0.0039
2125.00,0.0040
2124.00,0.0042
2123.00,0.0043
2122.00,0.0043
2121.00,0.0044
2120.00,0.0045
2119.00,0.0046
2118.00,0.0047
2117.00,0.0048
2116.00,0.0049
2115.00,0.0050
2114.00,0.0050
2113.00,0.0049
2112.00,0.0049
2111.00,0.0048
2110.00,0.0048
2109.00,0.0048
2108.00,0.0048
2107.00,0.0048
2106.00,0.0048
2105.00,0.0048
2104.00,0.0048
2103.00,0.0048
2102.00,0.0047
2101.00,0.0047
2100.00,0.0047
2099.00,0.0046
2098.00,0.0044
2097.00,0.0042
2096.00,0.0041
2095.00,0.0040
2094.00,0.0041
2093.00,0.0042
2092.00,0.0043
2091.00,0.0045
2090.00,0.0046
2089.00,0.0047
2088.00,0.0047
2087.00,0.0047
2086.00,0.0047
2085.00,0.0047
2084.00,0.0047
2083.00,0.0047
2082.00,0.0048
2081.00,0.0048
2080.00,0.0048
2079.00,0.0048
2078.00,0.0048
2077.00,0.0048
2076.00,0.0048
2075.00,0.0047
2074.00,0.0046
2073.00,0.0045
2072.00,0.0045
2071.00,0.0045
2070.00,0.0044
2069.00,0.0043
2068.00,0.0043
2067.00,0.0042
2066.00,0.0043
2065.00,0.0043
2064.00,0.0044
2063.00,0.0044
2062.00,0.0044
2061.00,0.0045
2060.00,0.0046
2059.00,0.0046
2058.00,0.0047
2057.00,0.0047
2056.00,0.0047
2055.00,0.0048
2054.00,0.0051
2053.00,0.0055
2052.00,0.0059
2051.00,0.0060
2050.00,0.0058
2049.00,0.0054
2048.00,0.0051
2047.00,0.0049
2046.00,0.0047
2045.00,0.0046
2044.00,0.0046
2043.00,0.0046
2042.00,0.0046
2041.00,0.0046
2040.00,0.0047
2039.00,0.0048
2038.00,0.0049
2037.00,0.0048
2036.00,0.0046
2035.00,0.0043
2034.00,0.0040
2033.00,0.0038
2032.00,0.0036
2031.00,0.0034
2030.00,0.0034
2029.00,0.0033
2028.00,0.0033
2027.00,0.0033
2026.00,0.0033
2025.00,0.0035
2024.00,0.0037
2023.00,0.0039
2022.00,0.0038
2021.00,0.0037
2020.00,0.0035
2019.00,0.0034
2018.00,0.0033
2017.00,0.0033
2016.00,0.0033
2015.00,0.0033
2014.00,0.0034
2013.00,0.0035
2012.00,0.0035
2011.00,0.0035
2010.00,0.0034
2009.00,0.0032
2008.00,0.0029
2007.00,0.0027
2006.00,0.0026
2005.00,0.0026
2004.00,0.0028
2003.00,0.0029
2002.00,0.0030
2001.00,0.0030
2000.00,0.0032
1999.00,0.0033
1998.00,0.0034
1997.00,0.0035
1996.00,0.0036
1995.00,0.0037
1994.00,0.0038
1993.00,0.0038
1992.00,0.0039
1991.00,0.0039
1990.00,0.0039
1989.00,0.0038
1988.00,0.0038
1987.00,0.0037
1986.00,0.0037
1985.00,0.0037
1984.00,0.0038
1983.00,0.0039
1982.00,0.0040
1981.00,0.0040
1980.00,0.0038
1979.00,0.0034
1978.00,0.0028
1977.00,0.0022
1976.00,0.0019
1975.00,0.0018
1974.00,0.0018
1973.00,0.0019
1972.00,0.0020
1971.00,0.0022
1970.00,0.0023
1969.00,0.0024
1968.00,0.0024
1967.00,0.0024
1966.00,0.0025
1965.00,0.0025
1964.00,0.0024
1963.00,0.0024
1962.00,0.0023
1961.00,0.0023
1960.00,0.0023
1959.00,0.0023
1958.00,0.0025
1957.00,0.0026
1956.00,0.0028
1955.00,0.0030
1954.00,0.0032
1953.00,0.0033
1952.00,0.0034
1951.00,0.0035
1950.00,0.0035
1949.00,0.0035
1948.00,0.0036
1947.00,0.0036
1946.00,0.0037
1945.00,0.0037
1944.00,0.0038
1943.00,0.0039
1942.00,0.0040
1941.00,0.0040
1940.00,0.0039
1939.00,0.0040
1938.00,0.0040
1937.00,0.0040
1936.00,0.0040
1935.00,0.0040
1934.00,0.0040
1933.00,0.0041
1932.00,0.0041
1931.00,0.0042
1930.00,0.0043
1929.00,0.0043
1928.00,0.0044
1927.00,0.0044
1926.00,0.0044
1925.00,0.0044
1924.00,0.0044
1923.00,0.0044
1922.00,0.0045
1921.00,0.0046
1920.00,0.0046
1919.00,0.0047
1918.00,0.0047
1917.00,0.0047
1916.00,0.0047
1915.00,0.0047
1914.00,0.0046
1913.00,0.0046
1912.00,0.0045
1911.00,0.0045
1910.00,0.0044
1909.00,0.0044
1908.00,0.0045
1907.00,0.0045
1906.00,0.0046
1905.00,0.0046
1904.00,0.0046
1903.00,0.0046
1902.00,0.0046
1901.00,0.0046
1900.00,0.0046
1899.00,0.0046
1898.00,0.0046
1897.00,0.0046
1896.00,0.0045
1895.00,0.0045
1894.00,0.0045
1893.00,0.0044
1892.00,0.0043
1891.00,0.0043
1890.00,0.0043
1889.00,0.0042
1888.00,0.0043
1887.00,0.0043
1886.00,0.0043
1885.00,0.0043
1884.00,0.0044
1883.00,0.0044
1882.00,0.0044
1881.00,0.0044
1880.00,0.0044
1879.00,0.0044
1878.00,0.0044
1877.00,0.0044
1876.00,0.0044
1875.00,0.0044
1874.00,0.0044
1873.00,0.0045
1872.00,0.0045
1871.00,0.0044
1870.00,0.0044
1869.00,0.0044
1868.00,0.0045
1867.00,0.0046
1866.00,0.0046
1865.00,0.0046
1864.00,0.0046
1863.00,0.0046
1862.00,0.0046
1861.00,0.0046
1860.00,0.0046
1859.00,0.0046
1858.00,0.0046
1857.00,0.0045
1856.00,0.0045
1855.00,0.0045
1854.00,0.0045
1853.00,0.0045
1852.00,0.0045
1851.00,0.0045
1850.00,0.0045
1849.00,0.0045
1848.00,0.0045
1847.00,0.0045
1846.00,0.0045
1845.00,0.0044
1844.00,0.0044
1843.00,0.0044
1842.00,0.0043
1841.00,0.0043
1840.00,0.0043
1839.00,0.0043
1838.00,0.0044
1837.00,0.0044
1836.00,0.0045
1835.00,0.0045
1834.00,0.0045
1833.00,0.0045
1832.00,0.0044
1831.00,0.0044
1830.00,0.0044
1829.00,0.0044
1828.00,0.0045
1827.00,0.0045
1826.00,0.0045
1825.00,0.0045
1824.00,0.0045
1823.00,0.0045
1822.00,0.0045
1821.00,0.0045
1820.00,0.0044
1819.00,0.0043
1818.00,0.0042
1817.00,0.0042
1816.00,0.0042
1815.00,0.0043
1814.00,0.0043
1813.00,0.0043
1812.00,0.0044
1811.00,0.0044
1810.00,0.0044
1809.00,0.0045
1808.00,0.0045
1807.00,0.0046
1806.00,0.0046
1805.00,0.0046
1804.00,0.0046
1803.00,0.0046
1802.00,0.0046
1801.00,0.0046
1800.00,0.0047
1799.00,0.0047
1798.00,0.0048
1797.00,0.0048
1796.00,0.0049
1795.00,0.0049
1794.00,0.0049
1793.00,0.0049
1792.00,0.0049
1791.00,0.0048
1790.00,0.0048
1789.00,0.0048
1788.00,0.0049
1787.00,0.0049
1786.00,0.0049
1785.00,0.0049
1784.00,0.0049
1783.00,0.0049
1782.00,0.0049
1781.00,0.0048
1780.00,0.0048
1779.00,0.0048
1778.00,0.0048
1777.00,0.0048
1776.00,0.0048
1775.00,0.0048
1774.00,0.0048
1773.00,0.0048
1772.00,0.0048
1771.00,0.0049
1770.00,0.0049
1769.00,0.0049
1768.00,0.0049
1767.00,0.0049
1766.00,0.0049
1765.00,0.0049
1764.00,0.0049
1763.00,0.0049
1762.00,0.0049
1761.00,0.0049
1760.00,0.0050
1759.00,0.0050
1758.00,0.0049
1757.00,0.0049
1756.00,0.0050
1755.00,0.0050
1754.00,0.0050
1753.00,0.0049
1752.00,0.0049
1751.00,0.0050
1750.00,0.0050
1749.00,0.0050
1748.00,0.0050
1747.00,0.0049
1746.00,0.0049
1745.00,0.0049
1744.00,0.0049
1743.00,0.0049
1742.00,0.0048
1741.00,0.0048
1740.00,0.0048
1739.00,0.0048
1738.00,0.0048
1737.00,0.0048
1736.00,0.0048
1735.00,0.0048
1734.00,0.0048
1733.00,0.0049
1732.00,0.0049
1731.00,0.0049
1730.00,0.0049
1729.00,0.0049
1728.00,0.0050
1727.00,0.0050
1726.00,0.0051
1725.00,0.0052
1724.00,0.0052
1723.00,0.0053
1722.00,0.0053
1721.00,0.0054
1720.00,0.0055
1719.00,0.0056
1718.00,0.0057
1717.00,0.0058
1716.00,0.0059
1715.00,0.0060
1714.00,0.0060
1713.00,0.0061
1712.00,0.0061
1711.00,0.0061
1710.00,0.0061
1709.00,0.0061
1708.00,0.0060
1707.00,0.0059
1706.00,0.0059
1705.00,0.0058
1704.00,0.0057
1703.00,0.0056
1702.00,0.0055
1701.00,0.0054
1700.00,0.0054
1699.00,0.0053
1698.00,0.0053
1697.00,0.0052
1696.00,0.0052
1695.00,0.0052
1694.00,0.0051
1693.00,0.0051
1692.00,0.0050
1691.00,0.0050
1690.00,0.0050
1689.00,0.0049
1688.00,0.0049
1687.00,0.0049
1686.00,0.0049
1685.00,0.0049
1684.00,0.0049
1683.00,0.0050
1682.00,0.0050
1681.00,0.0050
1680.00,0.0050
1679.00,0.0050
1678.00,0.0050
1677.00,0.0050
1676.00,0.0051
1675.00,0.0051
1674.00,0.0051
1673.00,0.0051
1672.00,0.0051
1671.00,0.0051
1670.00,0.0051
1669.00,0.0051
1668.00,0.0052
1667.00,0.0052
1666.00,0.0052
1665.00,0.0052
1664.00,0.0053
1663.00,0.0052
1662.00,0.0052
1661.00,0.0052
1660.00,0.0052
1659.00,0.0052
1658.00,0.0052
1657.00,0.0052
1656.00,0.0052
1655.00,0.0052
1654.00,0.0052
1653.00,0.0052
1652.00,0.0052
1651.00,0.0052
1650.00,0.0051
1649.00,0.0051
1648.00,0.0051
1647.00,0.0051
1646.00,0.0051
1645.00,0.0051
1644.00,0.0051
1643.00,0.0051
1642.00,0.0051
1641.00,0.0051
1640.00,0.0051
1639.00,0.0050
1638.00,0.0050
1637.00,0.0050
1636.00,0.0050
1635.00,0.0050
1634.00,0.0050
1633.00,0.0050
1632.00,0.0049
1631.00,0.0049
1630.00,0.0049
1629.00,0.0050
1628.00,0.0050
1627.00,0.0050
1626.00,0.0050
1625.00,0.0050
1624.00,0.0050
1623.00,0.0050
1622.00,0.0050
1621.00,0.0050
1620.00,0.0050
1619.00,0.0050
1618.00,0.0050
1617.00,0.0050
1616.00,0.0050
1615.00,0.0050
1614.00,0.0050
1613.00,0.0050
1612.00,0.0050
1611.00,0.0050
1610.00,0.0050
1609.00,0.0050
1608.00,0.0050
1607.00,0.0049
1606.00,0.0049
1605.00,0.0049
1604.00,0.0049
1603.00,0.0050
1602.00,0.0050
1601.00,0.0050
1600.00,0.0050
1599.00,0.0050
1598.00,0.0050
1597.00,0.0050
1596.00,0.0050
1595.00,0.0049
1594.00,0.0049
1593.00,0.0049
1592.00,0.0049
1591.00,0.0049
1590.00,0.0049
1589.00,0.0049
1588.00,0.0049
1587.00,0.0049
1586.00,0.0049
1585.00,0.0049
1584.00,0.0049
1583.00,0.0050
1582.00,0.0050
1581.00,0.0050
1580.00,0.0050
1579.00,0.0050
1578.00,0.0050
1577.00,0.0050
1576.00,0.0050
1575.00,0.0050
1574.00,0.0050
1573.00,0.0049
1572.00,0.0049
1571.00,0.0049
1570.00,0.0049
1569.00,0.0049
1568.00,0.0049
1567.00,0.0049
1566.00,0.0049
1565.00,0.0049
1564.00,0.0050
1563.00,0.0050
1562.00,0.0050
1561.00,0.0050
1560.00,0.0050
1559.00,0.0051
1558.00,0.0051
1557.00,0.0051
1556.00,0.0051
1555.00,0.0051
1554.00,0.0051
1553.00,0.0052
1552.00,0.0052
1551.00,0.0052
1550.00,0.0052
1549.00,0.0052
1548.00,0.0052
1547.00,0.0052
1546.00,0.0052
1545.00,0.0052
1544.00,0.0052
1543.00,0.0052
1542.00,0.0052
1541.00,0.0053
1540.00,0.0053
1539.00,0.0053
1538.00,0.0053
1537.00,0.0053
1536.00,0.0053
1535.00,0.0053
1534.00,0.0053
1533.00,0.0053
1532.00,0.0053
1531.00,0.0053
1530.00,0.0053
1529.00,0.0053
1528.00,0.0053
1527.00,0.0053
1526.00,0.0053
1525.00,0.0054
1524.00,0.0054
1523.00,0.0054
1522.00,0.0054
1521.00,0.0054
1520.00,0.0054
1519.00,0.0055
1518.00,0.0055
1517.00,0.0055
1516.00,0.0055
1515.00,0.0055
1514.00,0.0055
1513.00,0.0056
1512.00,0.0056
1511.00,0.0056
1510.00,0.0057
1509.00,0.0057
1508.00,0.0057
1507.00,0.0058
1506.00,0.0058
1505.00,0.0058
1504.00,0.0058
1503.00,0.0058
1502.00,0.0059
1501.00,0.0059
1500.00,0.0060
1499.00,0.0060
1498.00,0.0060
1497.00,0.0061
1496.00,0.0062
1495.00,0.0062
1494.00,0.0063
1493.00,0.0064
1492.00,0.0066
1491.00,0.0067
1490.00,0.0069
1489.00,0.0070
1488.00,0.0073
1487.00,0.0075
1486.00,0.0078
1485.00,0.0081
1484.00,0.0086
1483.00,0.0091
1482.00,0.0099
1481.00,0.0108
1480.00,0.0119
1479.00,0.0131
1478.00,0.0143
1477.00,0.0153
1476.00,0.0160
1475.00,0.0163
1474.00,0.0160
1473.00,0.0155
1472.00,0.0149
1471.00,0.0146
1470.00,0.0148
1469.00,0.0152
1468.00,0.0159
1467.00,0.0166
1466.00,0.0175
1465.00,0.0185
1464.00,0.0194
1463.00,0.0204
1462.00,0.0214
1461.00,0.0222
1460.00,0.0228
1459.00,0.0229
1458.00,0.0223
1457.00,0.0211
1456.00,0.0198
1455.00,0.0188
1454.00,0.0181
1453.00,0.0178
1452.00,0.0176
1451.00,0.0176
1450.00,0.0178
1449.00,0.0183
1448.00,0.0189
1447.00,0.0196
1446.00,0.0203
1445.00,0.0211
1444.00,0.0219
1443.00,0.0226
1442.00,0.0232
1441.00,0.0237
1440.00,0.0242
1439.00,0.0245
1438.00,0.0248
1437.00,0.0250
1436.00,0.0253
1435.00,0.0255
1434.00,0.0258
1433.00,0.0263
1432.00,0.0268
1431.00,0.0272
1430.00,0.0275
1429.00,0.0277
1428.00,0.0277
1427.00,0.0277
1426.00,0.0276
1425.00,0.0275
1424.00,0.0273
1423.00,0.0271
1422.00,0.0267
1421.00,0.0263
1420.00,0.0256
1419.00,0.0247
1418.00,0.0239
1417.00,0.0232
1416.00,0.0228
1415.00,0.0226
1414.00,0.0225
1413.00,0.0226
1412.00,0.0229
1411.00,0.0233
1410.00,0.0236
1409.00,0.0238
1408.00,0.0237
1407.00,0.0234
1406.00,0.0227
1405.00,0.0218
1404.00,0.0207
1403.00,0.0197
1402.00,0.0188
1401.00,0.0181
1400.00,0.0175
1399.00,0.0171
1398.00,0.0168
1397.00,0.0167
1396.00,0.0168
1395.00,0.0170
1394.00,0.0173
1393.00,0.0177
1392.00,0.0182
1391.00,0.0188
1390.00,0.0194
1389.00,0.0201
1388.00,0.0207
1387.00,0.0212
1386.00,0.0215
1385.00,0.0215
1384.00,0.0212
1383.00,0.0208
1382.00,0.0204
1381.00,0.0200
1380.00,0.0200
1379.00,0.0204
1378.00,0.0211
1377.00,0.0220
1376.00,0.0229
1375.00,0.0236
1374.00,0.0240
1373.00,0.0242
1372.00,0.0241
1371.00,0.0241
1370.00,0.0241
1369.00,0.0245
1368.00,0.0250
1367.00,0.0256
1366.00,0.0261
1365.00,0.0262
1364.00,0.0258
1363.00,0.0251
1362.00,0.0241
1361.00,0.0231
1360.00,0.0222
1359.00,0.0216
1358.00,0.0211
1357.00,0.0210
1356.00,0.0212
1355.00,0.0217
1354.00,0.0226
1353.00,0.0238
1352.00,0.0252
1351.00,0.0269
1350.00,0.0286
1349.00,0.0301
1348.00,0.0314
1347.00,0.0323
1346.00,0.0330
1345.00,0.0334
1344.00,0.0337
1343.00,0.0338
1342.00,0.0334
1341.00,0.0324
1340.00,0.0308
1339.00,0.0287
1338.00,0.0267
1337.00,0.0249
1336.00,0.0235
1335.00,0.0226
1334.00,0.0220
1333.00,0.0219
1332.00,0.0220
1331.00,0.0223
1330.00,0.0228
1329.00,0.0233
1328.00,0.0239
1327.00,0.0248
1326.00,0.0258
1325.00,0.0271
1324.00,0.0283
1323.00,0.0290
1322.00,0.0292
1321.00,0.0287
1320.00,0.0279
1319.00,0.0269
1318.00,0.0258
1317.00,0.0248
1316.00,0.0239
1315.00,0.0230
1314.00,0.0221
1313.00,0.0213
1312.00,0.0206
1311.00,0.0200
1310.00,0.0196
1309.00,0.0192
1308.00,0.0190
1307.00,0.0189
1306.00,0.0189
1305.00,0.0190
1304.00,0.0189
1303.00,0.0188
1302.00,0.0184
1301.00,0.0179
1300.00,0.0172
1299.00,0.0165
1298.00,0.0158
1297.00,0.0151
1296.00,0.0146
1295.00,0.0141
1294.00,0.0139
1293.00,0.0137
1292.00,0.0137
1291.00,0.0138
1290.00,0.0141
1289.00,0.0145
1288.00,0.0151
1287.00,0.0158
1286.00,0.0166
1285.00,0.0174
1284.00,0.0183
1283.00,0.0191
1282.00,0.0200
1281.00,0.0208
1280.00,0.0214
1279.00,0.0216
1278.00,0.0215
1277.00,0.0209
1276.00,0.0201
1275.00,0.0193
1274.00,0.0186
1273.00,0.0181
1272.00,0.0176
1271.00,0.0170
1270.00,0.0165
1269.00,0.0159
1268.00,0.0153
1267.00,0.0147
1266.00,0.0142
1265.00,0.0136
1264.00,0.0131
1263.00,0.0127
1262.00,0.0122
1261.00,0.0119
1260.00,0.0115
1259.00,0.0113
1258.00,0.0111
1257.00,0.0110
1256.00,0.0110
1255.00,0.0111
1254.00,0.0112
1253.00,0.0115
1252.00,0.0118
1251.00,0.0124
1250.00,0.0131
1249.00,0.0140
1248.00,0.0152
1247.00,0.0166
1246.00,0.0182
1245.00,0.0200
1244.00,0.0217
1243.00,0.0232
1242.00,0.0245
1241.00,0.0256
1240.00,0.0264
1239.00,0.0270
1238.00,0.0274
1237.00,0.0276
1236.00,0.0276
1235.00,0.0275
1234.00,0.0272
1233.00,0.0268
1232.00,0.0262
1231.00,0.0252
1230.00,0.0239
1229.00,0.0225
1228.00,0.0209
1227.00,0.0194
1226.00,0.0180
1225.00,0.0168
1224.00,0.0158
1223.00,0.0149
1222.00,0.0143
1221.00,0.0137
1220.00,0.0133
1219.00,0.0131
1218.00,0.0129
1217.00,0.0130
1216.00,0.0131
1215.00,0.0135
1214.00,0.0142
1213.00,0.0151
1212.00,0.0164
1211.00,0.0179
1210.00,0.0194
1209.00,0.0205
1208.00,0.0209
1207.00,0.0205
1206.00,0.0195
1205.00,0.0182
1204.00,0.0169
1203.00,0.0157
1202.00,0.0148
1201.00,0.0139
1200.00,0.0132
1199.00,0.0125
1198.00,0.0118
1197.00,0.0113
1196.00,0.0108
1195.00,0.0104
1194.00,0.0101
1193.00,0.0097
1192.00,0.0094
1191.00,0.0092
1190.00,0.0090
1189.00,0.0089
1188.00,0.0087
1187.00,0.0086
1186.00,0.0086
1185.00,0.0085
1184.00,0.0085
1183.00,0.0085
1182.00,0.0086
1181.00,0.0087
1180.00,0.0089
1179.00,0.0093
1178.00,0.0099
1177.00,0.0107
1176.00,0.0118
1175.00,0.0131
1174.00,0.0143
1173.00,0.0155
1172.00,0.0164
1171.00,0.0170
1170.00,0.0171
1169.00,0.0168
1168.00,0.0162
1167.00,0.0157
1166.00,0.0154
1165.00,0.0156
1164.00,0.0161
1163.00,0.0168
1162.00,0.0174
1161.00,0.0176
1160.00,0.0172
1159.00,0.0163
1158.00,0.0152
1157.00,0.0141
1156.00,0.0132
1155.00,0.0126
1154.00,0.0123
1153.00,0.0122
1152.00,0.0123
1151.00,0.0125
1150.00,0.0129
1149.00,0.0135
1148.00,0.0142
1147.00,0.0151
1146.00,0.0163
1145.00,0.0178
1144.00,0.0197
1143.00,0.0220
1142.00,0.0247
1141.00,0.0276
1140.00,0.0305
1139.00,0.0332
1138.00,0.0355
1137.00,0.0372
1136.00,0.0385
1135.00,0.0396
1134.00,0.0407
1133.00,0.0419
1132.00,0.0434
1131.00,0.0450
1130.00,0.0467
1129.00,0.0481
1128.00,0.0491
1127.00,0.0497
1126.00,0.0498
1125.00,0.0497
1124.00,0.0494
1123.00,0.0490
1122.00,0.0485
1121.00,0.0483
1120.00,0.0485
1119.00,0.0493
1118.00,0.0505
1117.00,0.0518
1116.00,0.0527
1115.00,0.0529
1114.00,0.0521
1113.00,0.0504
1112.00,0.0482
1111.00,0.0461
1110.00,0.0446
1109.00,0.0441
1108.00,0.0447
1107.00,0.0462
1106.00,0.0482
1105.00,0.0499
1104.00,0.0507
1103.00,0.0503
1102.00,0.0488
1101.00,0.0464
1100.00,0.0437
1099.00,0.0410
1098.00,0.0386
1097.00,0.0366
1096.00,0.0350
1095.00,0.0338
1094.00,0.0329
1093.00,0.0326
1092.00,0.0330
1091.00,0.0340
1090.00,0.0355
1089.00,0.0375
1088.00,0.0396
1087.00,0.0418
1086.00,0.0439
1085.00,0.0457
1084.00,0.0475
1083.00,0.0492
1082.00,0.0510
1081.00,0.0531
1080.00,0.0552
1079.00,0.0574
1078.00,0.0596
1077.00,0.0618
1076.00,0.0643
1075.00,0.0672
1074.00,0.0705
1073.00,0.0743
1072.00,0.0786
1071.00,0.0832
1070.00,0.0880
1069.00,0.0926
1068.00,0.0964
1067.00,0.0990
1066.00,0.1000
1065.00,0.0995
1064.00,0.0979
1063.00,0.0956
1062.00,0.0929
1061.00,0.0906
1060.00,0.0890
1059.00,0.0886
1058.00,0.0895
1057.00,0.0916
1056.00,0.0945
1055.00,0.0976
1054.00,0.1005
1053.00,0.1029
1052.00,0.1046
1051.00,0.1057
1050.00,0.1062
1049.00,0.1060
1048.00,0.1053
1047.00,0.1038
1046.00,0.1017
1045.00,0.0994
1044.00,0.0975
1043.00,0.0962
1042.00,0.0956
1041.00,0.0955
1040.00,0.0959
1039.00,0.0965
1038.00,0.0971
1037.00,0.0970
1036.00,0.0958
1035.00,0.0929
1034.00,0.0886
1033.00,0.0835
1032.00,0.0780
1031.00,0.0728
1030.00,0.0679
1029.00,0.0634
1028.00,0.0595
1027.00,0.0560
1026.00,0.0531
1025.00,0.0507
1024.00,0.0490
1023.00,0.0481
1022.00,0.0482
1021.00,0.0494
1020.00,0.0518
1019.00,0.0554
1018.00,0.0597
1017.00,0.0645
1016.00,0.0690
1015.00,0.0730
1014.00,0.0758
1013.00,0.0774
1012.00,0.0778
1011.00,0.0773
1010.00,0.0765
1009.00,0.0762
1008.00,0.0769
1007.00,0.0786
1006.00,0.0808
1005.00,0.0828
1004.00,0.0839
1003.00,0.0837
1002.00,0.0822
1001.00,0.0800
1000.00,0.0777
999.00,0.0757
998.00,0.0745
997.00,0.0747
996.00,0.0766
995.00,0.0805
994.00,0.0861
993.00,0.0931
992.00,0.1004
991.00,0.1070
990.00,0.1118
989.00,0.1144
988.00,0.1147
987.00,0.1132
986.00,0.1103
985.00,0.1065
984.00,0.1022
983.00,0.0975
982.00,0.0925
981.00,0.0873
980.00,0.0822
979.00,0.0772
978.00,0.0723
977.00,0.0678
976.00,0.0636
975.00,0.0598
974.00,0.0563
973.00,0.0531
972.00,0.0502
971.00,0.0476
970.00,0.0452
969.00,0.0430
968.00,0.0411
967.00,0.0393
966.00,0.0376
965.00,0.0361
964.00,0.0347
963.00,0.0335
962.00,0.0324
961.00,0.0313
960.00,0.0304
959.00,0.0295
958.00,0.0287
957.00,0.0281
956.00,0.0276
955.00,0.0272
954.00,0.0269
953.00,0.0268
952.00,0.0270
951.00,0.0275
950.00,0.0284
949.00,0.0299
948.00,0.0322
947.00,0.0353
946.00,0.0393
945.00,0.0437
944.00,0.0478
943.00,0.0506
942.00,0.0516
941.00,0.0507
940.00,0.0484
939.00,0.0453
938.00,0.0421
937.00,0.0391
936.00,0.0366
935.00,0.0345
934.00,0.0328
933.00,0.0317
932.00,0.0309
931.00,0.0307
930.00,0.0310
929.00,0.0320
928.00,0.0338
927.00,0.0366
926.00,0.0406
925.00,0.0457
924.00,0.0516
923.00,0.0575
922.00,0.0625
921.00,0.0661
920.00,0.0681
919.00,0.0690
918.00,0.0698
917.00,0.0710
916.00,0.0727
915.00,0.0747
914.00,0.0768
913.00,0.0796
912.00,0.0833
911.00,0.0882
910.00,0.0933
909.00,0.0972
908.00,0.0987
907.00,0.0974
906.00,0.0937
905.00,0.0886
904.00,0.0827
903.00,0.0768
902.00,0.0712
901.00,0.0660
900.00,0.0614
899.00,0.0573
898.00,0.0537
897.00,0.0505
896.00,0.0477
895.00,0.0452
894.00,0.0429
893.00,0.0409
892.00,0.0390
891.00,0.0374
890.00,0.0359
889.00,0.0346
888.00,0.0334
887.00,0.0324
886.00,0.0314
885.00,0.0306
884.00,0.0299
883.00,0.0293
882.00,0.0289
881.00,0.0287
880.00,0.0286
879.00,0.0288
878.00,0.0293
877.00,0.0301
876.00,0.0312
875.00,0.0329
874.00,0.0353
873.00,0.0388
872.00,0.0433
871.00,0.0487
870.00,0.0545
869.00,0.0598
868.00,0.0637
867.00,0.0654
866.00,0.0649
865.00,0.0625
864.00,0.0590
863.00,0.0551
862.00,0.0513
861.00,0.0479
860.00,0.0450
859.00,0.0428
858.00,0.0412
857.00,0.0403
856.00,0.0404
855.00,0.0416
854.00,0.0441
853.00,0.0477
852.00,0.0521
851.00,0.0564
850.00,0.0595
849.00,0.0607
848.00,0.0597
847.00,0.0570
846.00,0.0532
845.00,0.0492
844.00,0.0455
843.00,0.0424
842.00,0.0398
841.00,0.0377
840.00,0.0359
839.00,0.0344
838.00,0.0331
837.00,0.0320
836.00,0.0310
835.00,0.0301
834.00,0.0293
833.00,0.0286
832.00,0.0279
831.00,0.0274
830.00,0.0268
829.00,0.0263
828.00,0.0259
827.00,0.0256
826.00,0.0252
825.00,0.0249
824.00,0.0246
823.00,0.0242
822.00,0.0239
821.00,0.0236
820.00,0.0233
819.00,0.0231
818.00,0.0228
817.00,0.0226
816.00,0.0224
815.00,0.0222
814.00,0.0220
813.00,0.0219
812.00,0.0217
811.00,0.0216
810.00,0.0215
809.00,0.0214
808.00,0.0213
807.00,0.0212
806.00,0.0212
805.00,0.0211
804.00,0.0210
803.00,0.0210
802.00,0.0210
801.00,0.0210
800.00,0.0210
799.00,0.0209
798.00,0.0209
797.00,0.0209
796.00,0.0210
795.00,0.0210
794.00,0.0210
793.00,0.0211
792.00,0.0212
791.00,0.0213
790.00,0.0214
789.00,0.0215
788.00,0.0217
787.00,0.0218
786.00,0.0220
785.00,0.0222
784.00,0.0223
783.00,0.0223
782.00,0.0224
781.00,0.0223
780.00,0.0223
779.00,0.0222
778.00,0.0222
777.00,0.0222
776.00,0.0222
775.00,0.0223
774.00,0.0224
773.00,0.0224
772.00,0.0225
771.00,0.0226
770.00,0.0227
769.00,0.0228
768.00,0.0230
767.00,0.0232
766.00,0.0234
765.00,0.0236
764.00,0.0238
763.00,0.0240
762.00,0.0243
761.00,0.0245
760.00,0.0248
759.00,0.0251
758.00,0.0254
757.00,0.0257
756.00,0.0260
755.00,0.0262
754.00,0.0265
753.00,0.0268
752.00,0.0271
751.00,0.0274
750.00,0.0278
749.00,0.0281
748.00,0.0284
747.00,0.0287
746.00,0.0290
745.00,0.0293
744.00,0.0298
743.00,0.0303
742.00,0.0308
741.00,0.0314
740.00,0.0324
739.00,0.0337
738.00,0.0353
737.00,0.0373
736.00,0.0394
735.00,0.0412
734.00,0.0426
733.00,0.0434
732.00,0.0439
731.00,0.0439
730.00,0.0438
729.00,0.0434
728.00,0.0430
727.00,0.0426
726.00,0.0422
725.00,0.0418
724.00,0.0414
723.00,0.0410
722.00,0.0405
721.00,0.0401
720.00,0.0397
719.00,0.0394
718.00,0.0390
717.00,0.0387
716.00,0.0384
715.00,0.0382
714.00,0.0379
713.00,0.0377
712.00,0.0376
711.00,0.0375
710.00,0.0375
709.00,0.0376
708.00,0.0377
707.00,0.0380
706.00,0.0385
705.00,0.0392
704.00,0.0400
703.00,0.0410
702.00,0.0421
701.00,0.0434
700.00,0.0446
699.00,0.0458
698.00,0.0469
697.00,0.0480
696.00,0.0489
695.00,0.0496
694.00,0.0503
693.00,0.0509
692.00,0.0515
691.00,0.0523
690.00,0.0531
689.00,0.0540
688.00,0.0549
687.00,0.0559
686.00,0.0569
685.00,0.0578
684.00,0.0588
683.00,0.0597
682.00,0.0605
681.00,0.0610
680.00,0.0611
679.00,0.0608
678.00,0.0602
677.00,0.0594
676.00,0.0585
675.00,0.0575
674.00,0.0565
673.00,0.0556
672.00,0.0548
671.00,0.0541
670.00,0.0534
669.00,0.0528
668.00,0.0523
667.00,0.0517
666.00,0.0512
665.00,0.0507
664.00,0.0504
663.00,0.0501
662.00,0.0498
661.00,0.0495
660.00,0.0493
659.00,0.0492
658.00,0.0492
657.00,0.0492
656.00,0.0494
655.00,0.0496
654.00,0.0498
653.00,0.0501
652.00,0.0505
651.00,0.0511
650.00,0.0518
649.00,0.0526
648.00,0.0535
647.00,0.0546
646.00,0.0558
645.00,0.0571
644.00,0.0585
643.00,0.0597
642.00,0.0606
641.00,0.0610
640.00,0.0611
639.00,0.0606
638.00,0.0598
637.00,0.0588
636.00,0.0578
635.00,0.0568
634.00,0.0560
633.00,0.0554
632.00,0.0550
631.00,0.0548
630.00,0.0548
629.00,0.0549
628.00,0.0552
627.00,0.0556
626.00,0.0559
625.00,0.0563
624.00,0.0567
623.00,0.0572
622.00,0.0576
621.00,0.0581
620.00,0.0585
619.00,0.0590
618.00,0.0595
617.00,0.0600
616.00,0.0605
615.00,0.0611
614.00,0.0616
613.00,0.0621
612.00,0.0627
611.00,0.0633
610.00,0.0639
609.00,0.0646
608.00,0.0654
607.00,0.0662
606.00,0.0670
605.00,0.0677
604.00,0.0684
603.00,0.0692
602.00,0.0701
601.00,0.0710
600.00,0.0720
599.00,0.0729
598.00,0.0737
597.00,0.0745
596.00,0.0753
595.00,0.0761
594.00,0.0769
593.00,0.0777
592.00,0.0786
591.00,0.0794
590.00,0.0801
589.00,0.0810
588.00,0.0820
587.00,0.0834
586.00,0.0850
585.00,0.0867
584.00,0.0885
583.00,0.0899
582.00,0.0907
581.00,0.0910
580.00,0.0908
579.00,0.0904
578.00,0.0899
577.00,0.0894
576.00,0.0889
575.00,0.0884
574.00,0.0879
573.00,0.0876
572.00,0.0874
571.00,0.0873
570.00,0.0872
569.00,0.0871
568.00,0.0872
567.00,0.0873
566.00,0.0873
565.00,0.0875
564.00,0.0879
563.00,0.0884
562.00,0.0889
561.00,0.0896
560.00,0.0903
559.00,0.0912
558.00,0.0922
557.00,0.0935
556.00,0.0954
555.00,0.0979
554.00,0.1007
553.00,0.1037
552.00,0.1066
551.00,0.1088
550.00,0.1098
549.00,0.1098
548.00,0.1087
547.00,0.1066
546.00,0.1038
545.00,0.1008
544.00,0.0980
543.00,0.0958
542.00,0.0946
541.00,0.0953
540.00,0.0982
539.00,0.1026
538.00,0.1072
537.00,0.1105
536.00,0.1119
535.00,0.1114
534.00,0.1096
533.00,0.1075
532.00,0.1056
531.00,0.1040
530.00,0.1026
529.00,0.1016
528.00,0.1012
527.00,0.1015
526.00,0.1026
525.00,0.1045
524.00,0.1071
523.00,0.1094
522.00,0.1108
521.00,0.1110
520.00,0.1101
519.00,0.1082
518.00,0.1058
517.00,0.1034
516.00,0.1012
515.00,0.0991
514.00,0.0971
513.00,0.0952
512.00,0.0935
511.00,0.0920
510.00,0.0904
509.00,0.0890
508.00,0.0878
507.00,0.0869
506.00,0.0860
505.00,0.0853
504.00,0.0849
503.00,0.0848
502.00,0.0846
501.00,0.0845
500.00,0.0843
499.00,0.0840
498.00,0.0834
497.00,0.0824
496.00,0.0812
495.00,0.0799
494.00,0.0783
493.00,0.0766
492.00,0.0749
491.00,0.0733
490.00,0.0719
489.00,0.0707
488.00,0.0695
487.00,0.0683
486.00,0.0670
485.00,0.0657
484.00,0.0645
483.00,0.0636
482.00,0.0629
481.00,0.0627
480.00,0.0631
479.00,0.0640
478.00,0.0657
477.00,0.0688
476.00,0.0733
475.00,0.0788
474.00,0.0847
473.00,0.0901
472.00,0.0941
471.00,0.0958
470.00,0.0953
469.00,0.0934
468.00,0.0909
467.00,0.0882
466.00,0.0854
465.00,0.0828
464.00,0.0806
463.00,0.0785
462.00,0.0763
461.00,0.0743
460.00,0.0725
459.00,0.0710
458.00,0.0697
457.00,0.0686
456.00,0.0678
455.00,0.0669
454.00,0.0658
453.00,0.0646
452.00,0.0635
451.00,0.0624
450.00,0.0616
449.00,0.0614
448.00,0.0618
447.00,0.0624
446.00,0.0630
445.00,0.0638
444.00,0.0647
443.00,0.0659
442.00,0.0668
441.00,0.0674
440.00,0.0676
439.00,0.0672
438.00,0.0664
437.00,0.0653
436.00,0.0643
435.00,0.0633
434.00,0.0624
433.00,0.0614
432.00,0.0605
431.00,0.0595
430.00,0.0587
429.00,0.0583
428.00,0.0582
427.00,0.0580
426.00,0.0578
425.00,0.0577
424.00,0.0583
423.00,0.0591
422.00,0.0601
421.00,0.0613
420.00,0.0630
419.00,0.0648
418.00,0.0659
417.00,0.0661
416.00,0.0659
415.00,0.0655
414.00,0.0651
413.00,0.0653
412.00,0.0661
411.00,0.0676
410.00,0.0697
409.00,0.0733
408.00,0.0787
407.00,0.0848
406.00,0.0903
405.00,0.0947
404.00,0.0983
403.00,0.1011
402.00,0.1030
401.00,0.1043
400.00,0.1054
