Created as New Dataset,Sample 836 By YargerLab Date Saturday, April 18 2026
cm-1,A
4000.00,0.0026
3999.00,0.0026
3998.00,0.0026
3997.00,0.0026
3996.00,0.0026
3995.00,0.0026
3994.00,0.0026
3993.00,0.0026
3992.00,0.0026
3991.00,0.0026
3990.00,0.0026
3989.00,0.0026
3988.00,0.0026
3987.00,0.0026
3986.00,0.0026
3985.00,0.0026
3984.00,0.0026
3983.00,0.0026
3982.00,0.0026
3981.00,0.0026
3980.00,0.0026
3979.00,0.0026
3978.00,0.0026
3977.00,0.0026
3976.00,0.0026
3975.00,0.0026
3974.00,0.0026
3973.00,0.0026
3972.00,0.0026
3971.00,0.0026
3970.00,0.0026
3969.00,0.0026
3968.00,0.0026
3967.00,0.0026
3966.00,0.0026
3965.00,0.0026
3964.00,0.0026
3963.00,0.0026
3962.00,0.0026
3961.00,0.0026
3960.00,0.0026
3959.00,0.0026
3958.00,0.0026
3957.00,0.0026
3956.00,0.0026
3955.00,0.0026
3954.00,0.0026
3953.00,0.0026
3952.00,0.0026
3951.00,0.0026
3950.00,0.0026
3949.00,0.0027
3948.00,0.0027
3947.00,0.0027
3946.00,0.0027
3945.00,0.0027
3944.00,0.0026
3943.00,0.0026
3942.00,0.0026
3941.00,0.0026
3940.00,0.0026
3939.00,0.0026
3938.00,0.0026
3937.00,0.0026
3936.00,0.0026
3935.00,0.0026
3934.00,0.0026
3933.00,0.0027
3932.00,0.0027
3931.00,0.0027
3930.00,0.0027
3929.00,0.0027
3928.00,0.0027
3927.00,0.0026
3926.00,0.0026
3925.00,0.0026
3924.00,0.0026
3923.00,0.0026
3922.00,0.0025
3921.00,0.0026
3920.00,0.0026
3919.00,0.0026
3918.00,0.0027
3917.00,0.0027
3916.00,0.0027
3915.00,0.0026
3914.00,0.0026
3913.00,0.0026
3912.00,0.0026
3911.00,0.0026
3910.00,0.0026
3909.00,0.0026
3908.00,0.0026
3907.00,0.0026
3906.00,0.0027
3905.00,0.0027
3904.00,0.0027
3903.00,0.0027
3902.00,0.0027
3901.00,0.0027
3900.00,0.0027
3899.00,0.0027
3898.00,0.0027
3897.00,0.0027
3896.00,0.0026
3895.00,0.0026
3894.00,0.0026
3893.00,0.0026
3892.00,0.0026
3891.00,0.0026
3890.00,0.0026
3889.00,0.0026
3888.00,0.0026
3887.00,0.0026
3886.00,0.0026
3885.00,0.0026
3884.00,0.0026
3883.00,0.0026
3882.00,0.0026
3881.00,0.0026
3880.00,0.0026
3879.00,0.0026
3878.00,0.0026
3877.00,0.0026
3876.00,0.0026
3875.00,0.0026
3874.00,0.0026
3873.00,0.0026
3872.00,0.0026
3871.00,0.0026
3870.00,0.0026
3869.00,0.0026
3868.00,0.0026
3867.00,0.0026
3866.00,0.0026
3865.00,0.0027
3864.00,0.0027
3863.00,0.0026
3862.00,0.0026
3861.00,0.0026
3860.00,0.0026
3859.00,0.0026
3858.00,0.0025
3857.00,0.0025
3856.00,0.0024
3855.00,0.0024
3854.00,0.0025
3853.00,0.0025
3852.00,0.0025
3851.00,0.0026
3850.00,0.0026
3849.00,0.0026
3848.00,0.0026
3847.00,0.0026
3846.00,0.0026
3845.00,0.0026
3844.00,0.0026
3843.00,0.0026
3842.00,0.0026
3841.00,0.0025
3840.00,0.0025
3839.00,0.0025
3838.00,0.0025
3837.00,0.0025
3836.00,0.0025
3835.00,0.0025
3834.00,0.0025
3833.00,0.0025
3832.00,0.0025
3831.00,0.0025
3830.00,0.0025
3829.00,0.0025
3828.00,0.0025
3827.00,0.0025
3826.00,0.0025
3825.00,0.0025
3824.00,0.0025
3823.00,0.0026
3822.00,0.0026
3821.00,0.0026
3820.00,0.0025
3819.00,0.0025
3818.00,0.0025
3817.00,0.0025
3816.00,0.0025
3815.00,0.0025
3814.00,0.0025
3813.00,0.0026
3812.00,0.0026
3811.00,0.0026
3810.00,0.0026
3809.00,0.0026
3808.00,0.0026
3807.00,0.0026
3806.00,0.0026
3805.00,0.0026
3804.00,0.0025
3803.00,0.0025
3802.00,0.0025
3801.00,0.0025
3800.00,0.0025
3799.00,0.0025
3798.00,0.0025
3797.00,0.0025
3796.00,0.0025
3795.00,0.0025
3794.00,0.0025
3793.00,0.0025
3792.00,0.0025
3791.00,0.0025
3790.00,0.0025
3789.00,0.0025
3788.00,0.0025
3787.00,0.0026
3786.00,0.0026
3785.00,0.0026
3784.00,0.0026
3783.00,0.0025
3782.00,0.0025
3781.00,0.0025
3780.00,0.0025
3779.00,0.0025
3778.00,0.0025
3777.00,0.0025
3776.00,0.0025
3775.00,0.0024
3774.00,0.0024
3773.00,0.0024
3772.00,0.0025
3771.00,0.0025
3770.00,0.0025
3769.00,0.0025
3768.00,0.0025
3767.00,0.0025
3766.00,0.0026
3765.00,0.0025
3764.00,0.0025
3763.00,0.0025
3762.00,0.0025
3761.00,0.0025
3760.00,0.0025
3759.00,0.0025
3758.00,0.0025
3757.00,0.0025
3756.00,0.0025
3755.00,0.0025
3754.00,0.0025
3753.00,0.0026
3752.00,0.0026
3751.00,0.0026
3750.00,0.0026
3749.00,0.0026
3748.00,0.0026
3747.00,0.0026
3746.00,0.0026
3745.00,0.0025
3744.00,0.0025
3743.00,0.0025
3742.00,0.0025
3741.00,0.0025
3740.00,0.0025
3739.00,0.0025
3738.00,0.0025
3737.00,0.0025
3736.00,0.0026
3735.00,0.0026
3734.00,0.0025
3733.00,0.0025
3732.00,0.0025
3731.00,0.0025
3730.00,0.0025
3729.00,0.0025
3728.00,0.0025
3727.00,0.0025
3726.00,0.0025
3725.00,0.0025
3724.00,0.0025
3723.00,0.0025
3722.00,0.0025
3721.00,0.0025
3720.00,0.0025
3719.00,0.0024
3718.00,0.0024
3717.00,0.0024
3716.00,0.0024
3715.00,0.0025
3714.00,0.0025
3713.00,0.0025
3712.00,0.0024
3711.00,0.0024
3710.00,0.0024
3709.00,0.0023
3708.00,0.0024
3707.00,0.0024
3706.00,0.0024
3705.00,0.0024
3704.00,0.0024
3703.00,0.0024
3702.00,0.0024
3701.00,0.0024
3700.00,0.0024
3699.00,0.0024
3698.00,0.0023
3697.00,0.0023
3696.00,0.0023
3695.00,0.0023
3694.00,0.0023
3693.00,0.0023
3692.00,0.0023
3691.00,0.0023
3690.00,0.0023
3689.00,0.0023
3688.00,0.0024
3687.00,0.0024
3686.00,0.0024
3685.00,0.0024
3684.00,0.0024
3683.00,0.0023
3682.00,0.0023
3681.00,0.0023
3680.00,0.0023
3679.00,0.0024
3678.00,0.0024
3677.00,0.0024
3676.00,0.0024
3675.00,0.0023
3674.00,0.0023
3673.00,0.0023
3672.00,0.0023
3671.00,0.0023
3670.00,0.0023
3669.00,0.0023
3668.00,0.0023
3667.00,0.0023
3666.00,0.0023
3665.00,0.0023
3664.00,0.0023
3663.00,0.0023
3662.00,0.0023
3661.00,0.0023
3660.00,0.0023
3659.00,0.0024
3658.00,0.0024
3657.00,0.0024
3656.00,0.0024
3655.00,0.0024
3654.00,0.0024
3653.00,0.0024
3652.00,0.0025
3651.00,0.0025
3650.00,0.0025
3649.00,0.0025
3648.00,0.0024
3647.00,0.0024
3646.00,0.0024
3645.00,0.0024
3644.00,0.0024
3643.00,0.0024
3642.00,0.0024
3641.00,0.0023
3640.00,0.0023
3639.00,0.0022
3638.00,0.0022
3637.00,0.0022
3636.00,0.0022
3635.00,0.0023
3634.00,0.0023
3633.00,0.0023
3632.00,0.0023
3631.00,0.0023
3630.00,0.0023
3629.00,0.0023
3628.00,0.0023
3627.00,0.0023
3626.00,0.0023
3625.00,0.0023
3624.00,0.0023
3623.00,0.0023
3622.00,0.0023
3621.00,0.0023
3620.00,0.0023
3619.00,0.0023
3618.00,0.0023
3617.00,0.0023
3616.00,0.0023
3615.00,0.0023
3614.00,0.0024
3613.00,0.0024
3612.00,0.0024
3611.00,0.0024
3610.00,0.0023
3609.00,0.0023
3608.00,0.0023
3607.00,0.0023
3606.00,0.0023
3605.00,0.0023
3604.00,0.0023
3603.00,0.0022
3602.00,0.0022
3601.00,0.0022
3600.00,0.0023
3599.00,0.0023
3598.00,0.0023
3597.00,0.0023
3596.00,0.0023
3595.00,0.0023
3594.00,0.0022
3593.00,0.0022
3592.00,0.0022
3591.00,0.0023
3590.00,0.0023
3589.00,0.0023
3588.00,0.0024
3587.00,0.0024
3586.00,0.0023
3585.00,0.0023
3584.00,0.0023
3583.00,0.0023
3582.00,0.0023
3581.00,0.0023
3580.00,0.0022
3579.00,0.0022
3578.00,0.0022
3577.00,0.0022
3576.00,0.0022
3575.00,0.0022
3574.00,0.0022
3573.00,0.0022
3572.00,0.0022
3571.00,0.0023
3570.00,0.0023
3569.00,0.0024
3568.00,0.0024
3567.00,0.0024
3566.00,0.0024
3565.00,0.0023
3564.00,0.0023
3563.00,0.0022
3562.00,0.0022
3561.00,0.0022
3560.00,0.0022
3559.00,0.0023
3558.00,0.0023
3557.00,0.0023
3556.00,0.0022
3555.00,0.0022
3554.00,0.0023
3553.00,0.0023
3552.00,0.0023
3551.00,0.0023
3550.00,0.0023
3549.00,0.0023
3548.00,0.0023
3547.00,0.0023
3546.00,0.0023
3545.00,0.0023
3544.00,0.0022
3543.00,0.0022
3542.00,0.0022
3541.00,0.0022
3540.00,0.0022
3539.00,0.0023
3538.00,0.0023
3537.00,0.0023
3536.00,0.0023
3535.00,0.0023
3534.00,0.0024
3533.00,0.0024
3532.00,0.0023
3531.00,0.0023
3530.00,0.0024
3529.00,0.0024
3528.00,0.0024
3527.00,0.0024
3526.00,0.0024
3525.00,0.0024
3524.00,0.0024
3523.00,0.0024
3522.00,0.0024
3521.00,0.0024
3520.00,0.0023
3519.00,0.0023
3518.00,0.0023
3517.00,0.0023
3516.00,0.0023
3515.00,0.0023
3514.00,0.0023
3513.00,0.0023
3512.00,0.0023
3511.00,0.0023
3510.00,0.0022
3509.00,0.0022
3508.00,0.0022
3507.00,0.0022
3506.00,0.0023
3505.00,0.0023
3504.00,0.0023
3503.00,0.0023
3502.00,0.0023
3501.00,0.0023
3500.00,0.0023
3499.00,0.0023
3498.00,0.0023
3497.00,0.0023
3496.00,0.0023
3495.00,0.0023
3494.00,0.0023
3493.00,0.0023
3492.00,0.0023
3491.00,0.0023
3490.00,0.0023
3489.00,0.0023
3488.00,0.0023
3487.00,0.0023
3486.00,0.0023
3485.00,0.0023
3484.00,0.0023
3483.00,0.0023
3482.00,0.0023
3481.00,0.0023
3480.00,0.0023
3479.00,0.0023
3478.00,0.0023
3477.00,0.0023
3476.00,0.0023
3475.00,0.0023
3474.00,0.0023
3473.00,0.0023
3472.00,0.0023
3471.00,0.0023
3470.00,0.0023
3469.00,0.0023
3468.00,0.0023
3467.00,0.0023
3466.00,0.0023
3465.00,0.0023
3464.00,0.0023
3463.00,0.0023
3462.00,0.0023
3461.00,0.0023
3460.00,0.0023
3459.00,0.0023
3458.00,0.0024
3457.00,0.0024
3456.00,0.0024
3455.00,0.0024
3454.00,0.0024
3453.00,0.0024
3452.00,0.0024
3451.00,0.0024
3450.00,0.0024
3449.00,0.0024
3448.00,0.0024
3447.00,0.0024
3446.00,0.0024
3445.00,0.0024
3444.00,0.0024
3443.00,0.0024
3442.00,0.0023
3441.00,0.0023
3440.00,0.0023
3439.00,0.0023
3438.00,0.0024
3437.00,0.0024
3436.00,0.0024
3435.00,0.0024
3434.00,0.0023
3433.00,0.0023
3432.00,0.0023
3431.00,0.0023
3430.00,0.0023
3429.00,0.0023
3428.00,0.0023
3427.00,0.0022
3426.00,0.0022
3425.00,0.0022
3424.00,0.0023
3423.00,0.0023
3422.00,0.0023
3421.00,0.0023
3420.00,0.0023
3419.00,0.0023
3418.00,0.0023
3417.00,0.0023
3416.00,0.0023
3415.00,0.0023
3414.00,0.0023
3413.00,0.0023
3412.00,0.0023
3411.00,0.0023
3410.00,0.0023
3409.00,0.0023
3408.00,0.0023
3407.00,0.0023
3406.00,0.0023
3405.00,0.0023
3404.00,0.0023
3403.00,0.0023
3402.00,0.0023
3401.00,0.0023
3400.00,0.0023
3399.00,0.0024
3398.00,0.0024
3397.00,0.0024
3396.00,0.0024
3395.00,0.0024
3394.00,0.0024
3393.00,0.0023
3392.00,0.0023
3391.00,0.0023
3390.00,0.0023
3389.00,0.0023
3388.00,0.0023
3387.00,0.0023
3386.00,0.0023
3385.00,0.0023
3384.00,0.0023
3383.00,0.0023
3382.00,0.0023
3381.00,0.0023
3380.00,0.0023
3379.00,0.0023
3378.00,0.0023
3377.00,0.0023
3376.00,0.0023
3375.00,0.0023
3374.00,0.0023
3373.00,0.0023
3372.00,0.0024
3371.00,0.0024
3370.00,0.0024
3369.00,0.0024
3368.00,0.0024
3367.00,0.0023
3366.00,0.0023
3365.00,0.0023
3364.00,0.0023
3363.00,0.0023
3362.00,0.0023
3361.00,0.0023
3360.00,0.0023
3359.00,0.0023
3358.00,0.0023
3357.00,0.0023
3356.00,0.0023
3355.00,0.0023
3354.00,0.0023
3353.00,0.0023
3352.00,0.0023
3351.00,0.0023
3350.00,0.0023
3349.00,0.0023
3348.00,0.0023
3347.00,0.0023
3346.00,0.0023
3345.00,0.0023
3344.00,0.0023
3343.00,0.0023
3342.00,0.0023
3341.00,0.0023
3340.00,0.0022
3339.00,0.0022
3338.00,0.0022
3337.00,0.0022
3336.00,0.0023
3335.00,0.0023
3334.00,0.0023
3333.00,0.0023
3332.00,0.0023
3331.00,0.0023
3330.00,0.0023
3329.00,0.0023
3328.00,0.0023
3327.00,0.0023
3326.00,0.0023
3325.00,0.0023
3324.00,0.0023
3323.00,0.0023
3322.00,0.0023
3321.00,0.0024
3320.00,0.0024
3319.00,0.0024
3318.00,0.0024
3317.00,0.0023
3316.00,0.0023
3315.00,0.0023
3314.00,0.0023
3313.00,0.0023
3312.00,0.0023
3311.00,0.0023
3310.00,0.0023
3309.00,0.0023
3308.00,0.0023
3307.00,0.0023
3306.00,0.0023
3305.00,0.0023
3304.00,0.0023
3303.00,0.0023
3302.00,0.0023
3301.00,0.0023
3300.00,0.0023
3299.00,0.0023
3298.00,0.0023
3297.00,0.0023
3296.00,0.0023
3295.00,0.0023
3294.00,0.0023
3293.00,0.0023
3292.00,0.0023
3291.00,0.0023
3290.00,0.0023
3289.00,0.0023
3288.00,0.0023
3287.00,0.0023
3286.00,0.0022
3285.00,0.0022
3284.00,0.0022
3283.00,0.0022
3282.00,0.0022
3281.00,0.0022
3280.00,0.0023
3279.00,0.0023
3278.00,0.0023
3277.00,0.0023
3276.00,0.0023
3275.00,0.0023
3274.00,0.0023
3273.00,0.0023
3272.00,0.0023
3271.00,0.0023
3270.00,0.0023
3269.00,0.0023
3268.00,0.0023
3267.00,0.0023
3266.00,0.0023
3265.00,0.0023
3264.00,0.0023
3263.00,0.0023
3262.00,0.0022
3261.00,0.0022
3260.00,0.0022
3259.00,0.0022
3258.00,0.0022
3257.00,0.0022
3256.00,0.0022
3255.00,0.0022
3254.00,0.0022
3253.00,0.0022
3252.00,0.0022
3251.00,0.0022
3250.00,0.0022
3249.00,0.0022
3248.00,0.0022
3247.00,0.0022
3246.00,0.0022
3245.00,0.0022
3244.00,0.0022
3243.00,0.0022
3242.00,0.0022
3241.00,0.0022
3240.00,0.0022
3239.00,0.0022
3238.00,0.0022
3237.00,0.0022
3236.00,0.0022
3235.00,0.0022
3234.00,0.0022
3233.00,0.0022
3232.00,0.0022
3231.00,0.0022
3230.00,0.0022
3229.00,0.0022
3228.00,0.0022
3227.00,0.0022
3226.00,0.0022
3225.00,0.0021
3224.00,0.0021
3223.00,0.0021
3222.00,0.0021
3221.00,0.0021
3220.00,0.0021
3219.00,0.0021
3218.00,0.0021
3217.00,0.0022
3216.00,0.0022
3215.00,0.0022
3214.00,0.0021
3213.00,0.0021
3212.00,0.0021
3211.00,0.0021
3210.00,0.0021
3209.00,0.0021
3208.00,0.0021
3207.00,0.0021
3206.00,0.0021
3205.00,0.0021
3204.00,0.0021
3203.00,0.0021
3202.00,0.0021
3201.00,0.0021
3200.00,0.0021
3199.00,0.0021
3198.00,0.0022
3197.00,0.0022
3196.00,0.0022
3195.00,0.0022
3194.00,0.0022
3193.00,0.0021
3192.00,0.0021
3191.00,0.0021
3190.00,0.0021
3189.00,0.0021
3188.00,0.0021
3187.00,0.0021
3186.00,0.0021
3185.00,0.0021
3184.00,0.0021
3183.00,0.0021
3182.00,0.0021
3181.00,0.0021
3180.00,0.0021
3179.00,0.0021
3178.00,0.0021
3177.00,0.0021
3176.00,0.0021
3175.00,0.0021
3174.00,0.0021
3173.00,0.0021
3172.00,0.0021
3171.00,0.0021
3170.00,0.0021
3169.00,0.0021
3168.00,0.0021
3167.00,0.0021
3166.00,0.0021
3165.00,0.0021
3164.00,0.0021
3163.00,0.0020
3162.00,0.0020
3161.00,0.0020
3160.00,0.0020
3159.00,0.0020
3158.00,0.0021
3157.00,0.0021
3156.00,0.0021
3155.00,0.0021
3154.00,0.0021
3153.00,0.0020
3152.00,0.0020
3151.00,0.0020
3150.00,0.0020
3149.00,0.0020
3148.00,0.0020
3147.00,0.0020
3146.00,0.0020
3145.00,0.0020
3144.00,0.0020
3143.00,0.0020
3142.00,0.0020
3141.00,0.0020
3140.00,0.0020
3139.00,0.0020
3138.00,0.0020
3137.00,0.0020
3136.00,0.0020
3135.00,0.0020
3134.00,0.0020
3133.00,0.0020
3132.00,0.0020
3131.00,0.0020
3130.00,0.0019
3129.00,0.0019
3128.00,0.0019
3127.00,0.0020
3126.00,0.0020
3125.00,0.0020
3124.00,0.0020
3123.00,0.0020
3122.00,0.0020
3121.00,0.0021
3120.00,0.0021
3119.00,0.0021
3118.00,0.0021
3117.00,0.0021
3116.00,0.0021
3115.00,0.0021
3114.00,0.0021
3113.00,0.0021
3112.00,0.0022
3111.00,0.0022
3110.00,0.0022
3109.00,0.0023
3108.00,0.0023
3107.00,0.0023
3106.00,0.0024
3105.00,0.0024
3104.00,0.0024
3103.00,0.0025
3102.00,0.0025
3101.00,0.0025
3100.00,0.0025
3099.00,0.0025
3098.00,0.0024
3097.00,0.0024
3096.00,0.0024
3095.00,0.0024
3094.00,0.0024
3093.00,0.0025
3092.00,0.0025
3091.00,0.0026
3090.00,0.0027
3089.00,0.0028
3088.00,0.0030
3087.00,0.0031
3086.00,0.0032
3085.00,0.0034
3084.00,0.0035
3083.00,0.0036
3082.00,0.0036
3081.00,0.0036
3080.00,0.0036
3079.00,0.0035
3078.00,0.0034
3077.00,0.0033
3076.00,0.0032
3075.00,0.0032
3074.00,0.0031
3073.00,0.0031
3072.00,0.0031
3071.00,0.0031
3070.00,0.0031
3069.00,0.0032
3068.00,0.0033
3067.00,0.0034
3066.00,0.0035
3065.00,0.0037
3064.00,0.0039
3063.00,0.0040
3062.00,0.0042
3061.00,0.0043
3060.00,0.0044
3059.00,0.0044
3058.00,0.0044
3057.00,0.0043
3056.00,0.0042
3055.00,0.0040
3054.00,0.0038
3053.00,0.0037
3052.00,0.0035
3051.00,0.0034
3050.00,0.0033
3049.00,0.0032
3048.00,0.0032
3047.00,0.0031
3046.00,0.0031
3045.00,0.0030
3044.00,0.0030
3043.00,0.0030
3042.00,0.0030
3041.00,0.0031
3040.00,0.0032
3039.00,0.0033
3038.00,0.0034
3037.00,0.0035
3036.00,0.0037
3035.00,0.0039
3034.00,0.0042
3033.00,0.0045
3032.00,0.0048
3031.00,0.0051
3030.00,0.0055
3029.00,0.0058
3028.00,0.0062
3027.00,0.0064
3026.00,0.0067
3025.00,0.0068
3024.00,0.0068
3023.00,0.0066
3022.00,0.0063
3021.00,0.0060
3020.00,0.0055
3019.00,0.0051
3018.00,0.0047
3017.00,0.0043
3016.00,0.0039
3015.00,0.0037
3014.00,0.0034
3013.00,0.0033
3012.00,0.0032
3011.00,0.0031
3010.00,0.0030
3009.00,0.0030
3008.00,0.0029
3007.00,0.0029
3006.00,0.0029
3005.00,0.0030
3004.00,0.0030
3003.00,0.0031
3002.00,0.0031
3001.00,0.0031
3000.00,0.0031
2999.00,0.0031
2998.00,0.0030
2997.00,0.0029
2996.00,0.0028
2995.00,0.0027
2994.00,0.0027
2993.00,0.0026
2992.00,0.0026
2991.00,0.0025
2990.00,0.0025
2989.00,0.0025
2988.00,0.0025
2987.00,0.0025
2986.00,0.0025
2985.00,0.0025
2984.00,0.0025
2983.00,0.0025
2982.00,0.0025
2981.00,0.0025
2980.00,0.0026
2979.00,0.0026
2978.00,0.0026
2977.00,0.0027
2976.00,0.0027
2975.00,0.0027
2974.00,0.0027
2973.00,0.0027
2972.00,0.0028
2971.00,0.0028
2970.00,0.0028
2969.00,0.0029
2968.00,0.0029
2967.00,0.0030
2966.00,0.0031
2965.00,0.0031
2964.00,0.0032
2963.00,0.0033
2962.00,0.0033
2961.00,0.0034
2960.00,0.0034
2959.00,0.0034
2958.00,0.0035
2957.00,0.0036
2956.00,0.0037
2955.00,0.0038
2954.00,0.0038
2953.00,0.0039
2952.00,0.0040
2951.00,0.0041
2950.00,0.0042
2949.00,0.0042
2948.00,0.0043
2947.00,0.0044
2946.00,0.0045
2945.00,0.0046
2944.00,0.0048
2943.00,0.0050
2942.00,0.0051
2941.00,0.0053
2940.00,0.0055
2939.00,0.0057
2938.00,0.0059
2937.00,0.0062
2936.00,0.0064
2935.00,0.0067
2934.00,0.0069
2933.00,0.0072
2932.00,0.0075
2931.00,0.0078
2930.00,0.0080
2929.00,0.0083
2928.00,0.0085
2927.00,0.0087
2926.00,0.0089
2925.00,0.0090
2924.00,0.0091
2923.00,0.0092
2922.00,0.0093
2921.00,0.0094
2920.00,0.0094
2919.00,0.0094
2918.00,0.0093
2917.00,0.0092
2916.00,0.0090
2915.00,0.0088
2914.00,0.0086
2913.00,0.0084
2912.00,0.0082
2911.00,0.0080
2910.00,0.0078
2909.00,0.0076
2908.00,0.0074
2907.00,0.0071
2906.00,0.0069
2905.00,0.0067
2904.00,0.0065
2903.00,0.0063
2902.00,0.0061
2901.00,0.0059
2900.00,0.0058
2899.00,0.0056
2898.00,0.0054
2897.00,0.0053
2896.00,0.0051
2895.00,0.0050
2894.00,0.0049
2893.00,0.0048
2892.00,0.0047
2891.00,0.0046
2890.00,0.0044
2889.00,0.0043
2888.00,0.0043
2887.00,0.0042
2886.00,0.0041
2885.00,0.0041
2884.00,0.0040
2883.00,0.0039
2882.00,0.0039
2881.00,0.0038
2880.00,0.0038
2879.00,0.0038
2878.00,0.0037
2877.00,0.0037
2876.00,0.0037
2875.00,0.0037
2874.00,0.0036
2873.00,0.0036
2872.00,0.0036
2871.00,0.0036
2870.00,0.0036
2869.00,0.0036
2868.00,0.0036
2867.00,0.0036
2866.00,0.0036
2865.00,0.0037
2864.00,0.0037
2863.00,0.0038
2862.00,0.0039
2861.00,0.0040
2860.00,0.0041
2859.00,0.0042
2858.00,0.0044
2857.00,0.0045
2856.00,0.0047
2855.00,0.0048
2854.00,0.0050
2853.00,0.0051
2852.00,0.0052
2851.00,0.0053
2850.00,0.0054
2849.00,0.0053
2848.00,0.0053
2847.00,0.0052
2846.00,0.0050
2845.00,0.0048
2844.00,0.0046
2843.00,0.0044
2842.00,0.0042
2841.00,0.0039
2840.00,0.0037
2839.00,0.0034
2838.00,0.0032
2837.00,0.0031
2836.00,0.0029
2835.00,0.0027
2834.00,0.0026
2833.00,0.0025
2832.00,0.0024
2831.00,0.0024
2830.00,0.0024
2829.00,0.0023
2828.00,0.0023
2827.00,0.0023
2826.00,0.0023
2825.00,0.0023
2824.00,0.0022
2823.00,0.0022
2822.00,0.0022
2821.00,0.0022
2820.00,0.0021
2819.00,0.0021
2818.00,0.0021
2817.00,0.0021
2816.00,0.0021
2815.00,0.0021
2814.00,0.0021
2813.00,0.0021
2812.00,0.0021
2811.00,0.0021
2810.00,0.0021
2809.00,0.0021
2808.00,0.0020
2807.00,0.0020
2806.00,0.0020
2805.00,0.0020
2804.00,0.0020
2803.00,0.0020
2802.00,0.0020
2801.00,0.0020
2800.00,0.0020
2799.00,0.0020
2798.00,0.0020
2797.00,0.0020
2796.00,0.0020
2795.00,0.0020
2794.00,0.0020
2793.00,0.0020
2792.00,0.0020
2791.00,0.0019
2790.00,0.0019
2789.00,0.0019
2788.00,0.0019
2787.00,0.0019
2786.00,0.0019
2785.00,0.0019
2784.00,0.0019
2783.00,0.0019
2782.00,0.0019
2781.00,0.0019
2780.00,0.0019
2779.00,0.0019
2778.00,0.0019
2777.00,0.0019
2776.00,0.0019
2775.00,0.0019
2774.00,0.0019
2773.00,0.0019
2772.00,0.0019
2771.00,0.0019
2770.00,0.0019
2769.00,0.0019
2768.00,0.0019
2767.00,0.0019
2766.00,0.0019
2765.00,0.0019
2764.00,0.0018
2763.00,0.0018
2762.00,0.0018
2761.00,0.0018
2760.00,0.0018
2759.00,0.0018
2758.00,0.0018
2757.00,0.0018
2756.00,0.0018
2755.00,0.0018
2754.00,0.0018
2753.00,0.0018
2752.00,0.0018
2751.00,0.0018
2750.00,0.0018
2749.00,0.0018
2748.00,0.0018
2747.00,0.0018
2746.00,0.0018
2745.00,0.0018
2744.00,0.0018
2743.00,0.0018
2742.00,0.0018
2741.00,0.0018
2740.00,0.0018
2739.00,0.0018
2738.00,0.0018
2737.00,0.0018
2736.00,0.0018
2735.00,0.0018
2734.00,0.0017
2733.00,0.0017
2732.00,0.0018
2731.00,0.0018
2730.00,0.0018
2729.00,0.0018
2728.00,0.0018
2727.00,0.0018
2726.00,0.0018
2725.00,0.0018
2724.00,0.0018
2723.00,0.0018
2722.00,0.0018
2721.00,0.0018
2720.00,0.0018
2719.00,0.0018
2718.00,0.0018
2717.00,0.0018
2716.00,0.0018
2715.00,0.0018
2714.00,0.0018
2713.00,0.0018
2712.00,0.0018
2711.00,0.0018
2710.00,0.0018
2709.00,0.0018
2708.00,0.0018
2707.00,0.0018
2706.00,0.0018
2705.00,0.0018
2704.00,0.0018
2703.00,0.0017
2702.00,0.0017
2701.00,0.0017
2700.00,0.0017
2699.00,0.0017
2698.00,0.0017
2697.00,0.0017
2696.00,0.0017
2695.00,0.0017
2694.00,0.0017
2693.00,0.0017
2692.00,0.0017
2691.00,0.0017
2690.00,0.0018
2689.00,0.0018
2688.00,0.0018
2687.00,0.0018
2686.00,0.0018
2685.00,0.0018
2684.00,0.0018
2683.00,0.0017
2682.00,0.0017
2681.00,0.0017
2680.00,0.0017
2679.00,0.0017
2678.00,0.0017
2677.00,0.0017
2676.00,0.0017
2675.00,0.0017
2674.00,0.0017
2673.00,0.0017
2672.00,0.0017
2671.00,0.0017
2670.00,0.0017
2669.00,0.0017
2668.00,0.0018
2667.00,0.0018
2666.00,0.0018
2665.00,0.0018
2664.00,0.0018
2663.00,0.0019
2662.00,0.0019
2661.00,0.0019
2660.00,0.0019
2659.00,0.0020
2658.00,0.0020
2657.00,0.0020
2656.00,0.0020
2655.00,0.0020
2654.00,0.0020
2653.00,0.0020
2652.00,0.0020
2651.00,0.0020
2650.00,0.0020
2649.00,0.0020
2648.00,0.0020
2647.00,0.0020
2646.00,0.0020
2645.00,0.0020
2644.00,0.0020
2643.00,0.0020
2642.00,0.0020
2641.00,0.0020
2640.00,0.0020
2639.00,0.0020
2638.00,0.0020
2637.00,0.0019
2636.00,0.0019
2635.00,0.0019
2634.00,0.0020
2633.00,0.0020
2632.00,0.0020
2631.00,0.0020
2630.00,0.0020
2629.00,0.0020
2628.00,0.0020
2627.00,0.0020
2626.00,0.0019
2625.00,0.0019
2624.00,0.0019
2623.00,0.0019
2622.00,0.0019
2621.00,0.0019
2620.00,0.0019
2619.00,0.0019
2618.00,0.0019
2617.00,0.0019
2616.00,0.0019
2615.00,0.0019
2614.00,0.0018
2613.00,0.0018
2612.00,0.0018
2611.00,0.0018
2610.00,0.0018
2609.00,0.0019
2608.00,0.0019
2607.00,0.0019
2606.00,0.0018
2605.00,0.0018
2604.00,0.0018
2603.00,0.0018
2602.00,0.0018
2601.00,0.0018
2600.00,0.0018
2599.00,0.0018
2598.00,0.0017
2597.00,0.0017
2596.00,0.0017
2595.00,0.0017
2594.00,0.0016
2593.00,0.0017
2592.00,0.0016
2591.00,0.0016
2590.00,0.0016
2589.00,0.0016
2588.00,0.0016
2587.00,0.0016
2586.00,0.0016
2585.00,0.0016
2584.00,0.0016
2583.00,0.0016
2582.00,0.0016
2581.00,0.0016
2580.00,0.0017
2579.00,0.0016
2578.00,0.0016
2577.00,0.0016
2576.00,0.0016
2575.00,0.0016
2574.00,0.0016
2573.00,0.0016
2572.00,0.0016
2571.00,0.0016
2570.00,0.0016
2569.00,0.0016
2568.00,0.0016
2567.00,0.0016
2566.00,0.0016
2565.00,0.0016
2564.00,0.0016
2563.00,0.0016
2562.00,0.0016
2561.00,0.0016
2560.00,0.0016
2559.00,0.0016
2558.00,0.0015
2557.00,0.0015
2556.00,0.0015
2555.00,0.0015
2554.00,0.0015
2553.00,0.0015
2552.00,0.0014
2551.00,0.0014
2550.00,0.0014
2549.00,0.0014
2548.00,0.0014
2547.00,0.0014
2546.00,0.0015
2545.00,0.0015
2544.00,0.0015
2543.00,0.0014
2542.00,0.0014
2541.00,0.0014
2540.00,0.0014
2539.00,0.0014
2538.00,0.0014
2537.00,0.0014
2536.00,0.0014
2535.00,0.0014
2534.00,0.0014
2533.00,0.0015
2532.00,0.0015
2531.00,0.0015
2530.00,0.0014
2529.00,0.0014
2528.00,0.0014
2527.00,0.0014
2526.00,0.0014
2525.00,0.0014
2524.00,0.0014
2523.00,0.0014
2522.00,0.0014
2521.00,0.0014
2520.00,0.0014
2519.00,0.0015
2518.00,0.0015
2517.00,0.0014
2516.00,0.0014
2515.00,0.0013
2514.00,0.0013
2513.00,0.0014
2512.00,0.0014
2511.00,0.0014
2510.00,0.0014
2509.00,0.0014
2508.00,0.0013
2507.00,0.0013
2506.00,0.0013
2505.00,0.0013
2504.00,0.0013
2503.00,0.0014
2502.00,0.0014
2501.00,0.0014
2500.00,0.0014
2499.00,0.0014
2498.00,0.0014
2497.00,0.0014
2496.00,0.0014
2495.00,0.0014
2494.00,0.0014
2493.00,0.0014
2492.00,0.0013
2491.00,0.0013
2490.00,0.0013
2489.00,0.0013
2488.00,0.0014
2487.00,0.0014
2486.00,0.0014
2485.00,0.0013
2484.00,0.0013
2483.00,0.0013
2482.00,0.0013
2481.00,0.0013
2480.00,0.0013
2479.00,0.0013
2478.00,0.0013
2477.00,0.0013
2476.00,0.0013
2475.00,0.0013
2474.00,0.0013
2473.00,0.0013
2472.00,0.0013
2471.00,0.0013
2470.00,0.0013
2469.00,0.0013
2468.00,0.0013
2467.00,0.0013
2466.00,0.0013
2465.00,0.0013
2464.00,0.0013
2463.00,0.0013
2462.00,0.0013
2461.00,0.0013
2460.00,0.0013
2459.00,0.0013
2458.00,0.0013
2457.00,0.0013
2456.00,0.0013
2455.00,0.0013
2454.00,0.0013
2453.00,0.0013
2452.00,0.0013
2451.00,0.0013
2450.00,0.0013
2449.00,0.0013
2448.00,0.0013
2447.00,0.0013
2446.00,0.0013
2445.00,0.0013
2444.00,0.0013
2443.00,0.0013
2442.00,0.0013
2441.00,0.0013
2440.00,0.0013
2439.00,0.0013
2438.00,0.0013
2437.00,0.0013
2436.00,0.0013
2435.00,0.0012
2434.00,0.0012
2433.00,0.0012
2432.00,0.0012
2431.00,0.0012
2430.00,0.0012
2429.00,0.0012
2428.00,0.0011
2427.00,0.0011
2426.00,0.0011
2425.00,0.0011
2424.00,0.0011
2423.00,0.0011
2422.00,0.0010
2421.00,0.0010
2420.00,0.0010
2419.00,0.0010
2418.00,0.0010
2417.00,0.0010
2416.00,0.0010
2415.00,0.0011
2414.00,0.0011
2413.00,0.0011
2412.00,0.0011
2411.00,0.0011
2410.00,0.0010
2409.00,0.0010
2408.00,0.0010
2407.00,0.0010
2406.00,0.0010
2405.00,0.0010
2404.00,0.0010
2403.00,0.0010
2402.00,0.0011
2401.00,0.0010
2400.00,0.0010
2399.00,0.0010
2398.00,0.0010
2397.00,0.0010
2396.00,0.0010
2395.00,0.0010
2394.00,0.0011
2393.00,0.0010
2392.00,0.0010
2391.00,0.0010
2390.00,0.0009
2389.00,0.0009
2388.00,0.0009
2387.00,0.0009
2386.00,0.0009
2385.00,0.0009
2384.00,0.0008
2383.00,0.0008
2382.00,0.0008
2381.00,0.0007
2380.00,0.0007
2379.00,0.0007
2378.00,0.0008
2377.00,0.0008
2376.00,0.0008
2375.00,0.0008
2374.00,0.0008
2373.00,0.0008
2372.00,0.0007
2371.00,0.0007
2370.00,0.0006
2369.00,0.0006
2368.00,0.0006
2367.00,0.0006
2366.00,0.0006
2365.00,0.0006
2364.00,0.0007
2363.00,0.0007
2362.00,0.0007
2361.00,0.0008
2360.00,0.0008
2359.00,0.0008
2358.00,0.0008
2357.00,0.0009
2356.00,0.0009
2355.00,0.0010
2354.00,0.0010
2353.00,0.0009
2352.00,0.0009
2351.00,0.0009
2350.00,0.0009
2349.00,0.0009
2348.00,0.0009
2347.00,0.0009
2346.00,0.0009
2345.00,0.0009
2344.00,0.0009
2343.00,0.0009
2342.00,0.0009
2341.00,0.0009
2340.00,0.0010
2339.00,0.0010
2338.00,0.0011
2337.00,0.0011
2336.00,0.0012
2335.00,0.0012
2334.00,0.0012
2333.00,0.0011
2332.00,0.0011
2331.00,0.0011
2330.00,0.0011
2329.00,0.0012
2328.00,0.0014
2327.00,0.0016
2326.00,0.0018
2325.00,0.0019
2324.00,0.0018
2323.00,0.0017
2322.00,0.0016
2321.00,0.0016
2320.00,0.0015
2319.00,0.0015
2318.00,0.0014
2317.00,0.0013
2316.00,0.0013
2315.00,0.0012
2314.00,0.0012
2313.00,0.0012
2312.00,0.0011
2311.00,0.0011
2310.00,0.0011
2309.00,0.0011
2308.00,0.0011
2307.00,0.0011
2306.00,0.0011
2305.00,0.0011
2304.00,0.0011
2303.00,0.0011
2302.00,0.0012
2301.00,0.0012
2300.00,0.0012
2299.00,0.0012
2298.00,0.0012
2297.00,0.0013
2296.00,0.0013
2295.00,0.0014
2294.00,0.0014
2293.00,0.0015
2292.00,0.0015
2291.00,0.0015
2290.00,0.0016
2289.00,0.0016
2288.00,0.0017
2287.00,0.0017
2286.00,0.0017
2285.00,0.0017
2284.00,0.0017
2283.00,0.0016
2282.00,0.0015
2281.00,0.0015
2280.00,0.0014
2279.00,0.0014
2278.00,0.0014
2277.00,0.0014
2276.00,0.0014
2275.00,0.0014
2274.00,0.0013
2273.00,0.0013
2272.00,0.0012
2271.00,0.0012
2270.00,0.0011
2269.00,0.0011
2268.00,0.0011
2267.00,0.0011
2266.00,0.0011
2265.00,0.0011
2264.00,0.0011
2263.00,0.0011
2262.00,0.0011
2261.00,0.0012
2260.00,0.0012
2259.00,0.0012
2258.00,0.0012
2257.00,0.0012
2256.00,0.0011
2255.00,0.0011
2254.00,0.0011
2253.00,0.0011
2252.00,0.0011
2251.00,0.0012
2250.00,0.0012
2249.00,0.0012
2248.00,0.0012
2247.00,0.0013
2246.00,0.0013
2245.00,0.0013
2244.00,0.0013
2243.00,0.0013
2242.00,0.0012
2241.00,0.0011
2240.00,0.0010
2239.00,0.0010
2238.00,0.0011
2237.00,0.0011
2236.00,0.0011
2235.00,0.0010
2234.00,0.0009
2233.00,0.0009
2232.00,0.0009
2231.00,0.0009
2230.00,0.0010
2229.00,0.0010
2228.00,0.0011
2227.00,0.0012
2226.00,0.0011
2225.00,0.0011
2224.00,0.0011
2223.00,0.0012
2222.00,0.0013
2221.00,0.0013
2220.00,0.0013
2219.00,0.0012
2218.00,0.0011
2217.00,0.0011
2216.00,0.0011
2215.00,0.0011
2214.00,0.0011
2213.00,0.0012
2212.00,0.0013
2211.00,0.0013
2210.00,0.0013
2209.00,0.0012
2208.00,0.0011
2207.00,0.0009
2206.00,0.0009
2205.00,0.0009
2204.00,0.0009
2203.00,0.0010
2202.00,0.0010
2201.00,0.0010
2200.00,0.0011
2199.00,0.0012
2198.00,0.0012
2197.00,0.0012
2196.00,0.0012
2195.00,0.0012
2194.00,0.0011
2193.00,0.0011
2192.00,0.0011
2191.00,0.0012
2190.00,0.0012
2189.00,0.0013
2188.00,0.0013
2187.00,0.0014
2186.00,0.0015
2185.00,0.0015
2184.00,0.0014
2183.00,0.0012
2182.00,0.0010
2181.00,0.0008
2180.00,0.0007
2179.00,0.0007
2178.00,0.0007
2177.00,0.0008
2176.00,0.0008
2175.00,0.0008
2174.00,0.0008
2173.00,0.0009
2172.00,0.0011
2171.00,0.0014
2170.00,0.0016
2169.00,0.0017
2168.00,0.0017
2167.00,0.0016
2166.00,0.0016
2165.00,0.0017
2164.00,0.0018
2163.00,0.0018
2162.00,0.0014
2161.00,0.0006
2160.00,-0.0003
2159.00,-0.0011
2158.00,-0.0013
2157.00,-0.0012
2156.00,-0.0009
2155.00,-0.0006
2154.00,-0.0004
2153.00,-0.0003
2152.00,-0.0003
2151.00,-0.0003
2150.00,-0.0003
2149.00,-0.0002
2148.00,-0.0002
2147.00,-0.0002
2146.00,-0.0003
2145.00,-0.0002
2144.00,-0.0001
2143.00,-0.0000
2142.00,0.0001
2141.00,0.0001
2140.00,0.0000
2139.00,-0.0000
2138.00,-0.0001
2137.00,-0.0003
2136.00,-0.0004
2135.00,-0.0005
2134.00,-0.0005
2133.00,-0.0004
2132.00,-0.0002
2131.00,-0.0001
2130.00,-0.0000
2129.00,-0.0000
2128.00,0.0000
2127.00,0.0001
2126.00,0.0002
2125.00,0.0003
2124.00,0.0004
2123.00,0.0004
2122.00,0.0005
2121.00,0.0005
2120.00,0.0005
2119.00,0.0005
2118.00,0.0006
2117.00,0.0006
2116.00,0.0006
2115.00,0.0007
2114.00,0.0007
2113.00,0.0008
2112.00,0.0008
2111.00,0.0008
2110.00,0.0009
2109.00,0.0009
2108.00,0.0010
2107.00,0.0010
2106.00,0.0010
2105.00,0.0010
2104.00,0.0010
2103.00,0.0009
2102.00,0.0009
2101.00,0.0009
2100.00,0.0008
2099.00,0.0008
2098.00,0.0007
2097.00,0.0006
2096.00,0.0005
2095.00,0.0005
2094.00,0.0005
2093.00,0.0005
2092.00,0.0006
2091.00,0.0006
2090.00,0.0007
2089.00,0.0007
2088.00,0.0008
2087.00,0.0008
2086.00,0.0009
2085.00,0.0009
2084.00,0.0010
2083.00,0.0010
2082.00,0.0011
2081.00,0.0010
2080.00,0.0010
2079.00,0.0009
2078.00,0.0009
2077.00,0.0009
2076.00,0.0008
2075.00,0.0008
2074.00,0.0008
2073.00,0.0007
2072.00,0.0008
2071.00,0.0008
2070.00,0.0008
2069.00,0.0009
2068.00,0.0009
2067.00,0.0009
2066.00,0.0008
2065.00,0.0008
2064.00,0.0007
2063.00,0.0007
2062.00,0.0006
2061.00,0.0006
2060.00,0.0006
2059.00,0.0006
2058.00,0.0006
2057.00,0.0006
2056.00,0.0006
2055.00,0.0007
2054.00,0.0009
2053.00,0.0012
2052.00,0.0015
2051.00,0.0015
2050.00,0.0014
2049.00,0.0012
2048.00,0.0010
2047.00,0.0010
2046.00,0.0011
2045.00,0.0011
2044.00,0.0011
2043.00,0.0010
2042.00,0.0009
2041.00,0.0008
2040.00,0.0008
2039.00,0.0009
2038.00,0.0009
2037.00,0.0010
2036.00,0.0010
2035.00,0.0009
2034.00,0.0008
2033.00,0.0006
2032.00,0.0005
2031.00,0.0005
2030.00,0.0004
2029.00,0.0004
2028.00,0.0003
2027.00,0.0003
2026.00,0.0002
2025.00,0.0003
2024.00,0.0003
2023.00,0.0004
2022.00,0.0005
2021.00,0.0005
2020.00,0.0005
2019.00,0.0005
2018.00,0.0005
2017.00,0.0006
2016.00,0.0008
2015.00,0.0009
2014.00,0.0009
2013.00,0.0009
2012.00,0.0007
2011.00,0.0006
2010.00,0.0005
2009.00,0.0004
2008.00,0.0003
2007.00,0.0002
2006.00,0.0002
2005.00,0.0001
2004.00,0.0000
2003.00,-0.0000
2002.00,0.0000
2001.00,0.0002
2000.00,0.0003
1999.00,0.0004
1998.00,0.0005
1997.00,0.0005
1996.00,0.0007
1995.00,0.0008
1994.00,0.0008
1993.00,0.0007
1992.00,0.0007
1991.00,0.0008
1990.00,0.0008
1989.00,0.0009
1988.00,0.0008
1987.00,0.0008
1986.00,0.0009
1985.00,0.0010
1984.00,0.0011
1983.00,0.0013
1982.00,0.0014
1981.00,0.0015
1980.00,0.0014
1979.00,0.0012
1978.00,0.0009
1977.00,0.0006
1976.00,0.0003
1975.00,0.0002
1974.00,0.0003
1973.00,0.0003
1972.00,0.0003
1971.00,0.0003
1970.00,0.0003
1969.00,0.0003
1968.00,0.0003
1967.00,0.0003
1966.00,0.0004
1965.00,0.0005
1964.00,0.0005
1963.00,0.0006
1962.00,0.0006
1961.00,0.0005
1960.00,0.0004
1959.00,0.0005
1958.00,0.0005
1957.00,0.0006
1956.00,0.0008
1955.00,0.0008
1954.00,0.0009
1953.00,0.0010
1952.00,0.0011
1951.00,0.0011
1950.00,0.0011
1949.00,0.0010
1948.00,0.0009
1947.00,0.0008
1946.00,0.0008
1945.00,0.0008
1944.00,0.0008
1943.00,0.0009
1942.00,0.0010
1941.00,0.0010
1940.00,0.0011
1939.00,0.0011
1938.00,0.0010
1937.00,0.0010
1936.00,0.0009
1935.00,0.0009
1934.00,0.0009
1933.00,0.0009
1932.00,0.0008
1931.00,0.0008
1930.00,0.0007
1929.00,0.0006
1928.00,0.0005
1927.00,0.0005
1926.00,0.0005
1925.00,0.0005
1924.00,0.0005
1923.00,0.0006
1922.00,0.0007
1921.00,0.0008
1920.00,0.0008
1919.00,0.0007
1918.00,0.0007
1917.00,0.0007
1916.00,0.0007
1915.00,0.0006
1914.00,0.0006
1913.00,0.0006
1912.00,0.0007
1911.00,0.0007
1910.00,0.0007
1909.00,0.0007
1908.00,0.0007
1907.00,0.0007
1906.00,0.0007
1905.00,0.0007
1904.00,0.0007
1903.00,0.0007
1902.00,0.0007
1901.00,0.0007
1900.00,0.0007
1899.00,0.0008
1898.00,0.0009
1897.00,0.0009
1896.00,0.0010
1895.00,0.0010
1894.00,0.0010
1893.00,0.0010
1892.00,0.0010
1891.00,0.0011
1890.00,0.0012
1889.00,0.0012
1888.00,0.0012
1887.00,0.0012
1886.00,0.0012
1885.00,0.0011
1884.00,0.0012
1883.00,0.0012
1882.00,0.0012
1881.00,0.0012
1880.00,0.0012
1879.00,0.0012
1878.00,0.0012
1877.00,0.0012
1876.00,0.0012
1875.00,0.0012
1874.00,0.0013
1873.00,0.0013
1872.00,0.0014
1871.00,0.0014
1870.00,0.0013
1869.00,0.0013
1868.00,0.0013
1867.00,0.0013
1866.00,0.0013
1865.00,0.0013
1864.00,0.0013
1863.00,0.0012
1862.00,0.0012
1861.00,0.0012
1860.00,0.0012
1859.00,0.0011
1858.00,0.0011
1857.00,0.0011
1856.00,0.0010
1855.00,0.0010
1854.00,0.0010
1853.00,0.0010
1852.00,0.0010
1851.00,0.0010
1850.00,0.0010
1849.00,0.0010
1848.00,0.0009
1847.00,0.0009
1846.00,0.0009
1845.00,0.0009
1844.00,0.0009
1843.00,0.0010
1842.00,0.0010
1841.00,0.0010
1840.00,0.0010
1839.00,0.0010
1838.00,0.0010
1837.00,0.0010
1836.00,0.0009
1835.00,0.0009
1834.00,0.0009
1833.00,0.0009
1832.00,0.0009
1831.00,0.0010
1830.00,0.0010
1829.00,0.0011
1828.00,0.0011
1827.00,0.0011
1826.00,0.0011
1825.00,0.0011
1824.00,0.0011
1823.00,0.0012
1822.00,0.0012
1821.00,0.0012
1820.00,0.0012
1819.00,0.0011
1818.00,0.0011
1817.00,0.0011
1816.00,0.0011
1815.00,0.0012
1814.00,0.0013
1813.00,0.0014
1812.00,0.0014
1811.00,0.0015
1810.00,0.0015
1809.00,0.0015
1808.00,0.0015
1807.00,0.0016
1806.00,0.0016
1805.00,0.0016
1804.00,0.0016
1803.00,0.0016
1802.00,0.0016
1801.00,0.0016
1800.00,0.0016
1799.00,0.0016
1798.00,0.0016
1797.00,0.0016
1796.00,0.0015
1795.00,0.0015
1794.00,0.0015
1793.00,0.0015
1792.00,0.0015
1791.00,0.0015
1790.00,0.0014
1789.00,0.0014
1788.00,0.0014
1787.00,0.0013
1786.00,0.0013
1785.00,0.0013
1784.00,0.0013
1783.00,0.0014
1782.00,0.0014
1781.00,0.0014
1780.00,0.0014
1779.00,0.0014
1778.00,0.0014
1777.00,0.0014
1776.00,0.0014
1775.00,0.0014
1774.00,0.0014
1773.00,0.0014
1772.00,0.0015
1771.00,0.0015
1770.00,0.0015
1769.00,0.0015
1768.00,0.0016
1767.00,0.0016
1766.00,0.0016
1765.00,0.0016
1764.00,0.0017
1763.00,0.0017
1762.00,0.0018
1761.00,0.0018
1760.00,0.0019
1759.00,0.0019
1758.00,0.0020
1757.00,0.0021
1756.00,0.0022
1755.00,0.0023
1754.00,0.0024
1753.00,0.0025
1752.00,0.0027
1751.00,0.0028
1750.00,0.0029
1749.00,0.0031
1748.00,0.0032
1747.00,0.0033
1746.00,0.0034
1745.00,0.0035
1744.00,0.0036
1743.00,0.0036
1742.00,0.0037
1741.00,0.0038
1740.00,0.0038
1739.00,0.0038
1738.00,0.0038
1737.00,0.0037
1736.00,0.0037
1735.00,0.0037
1734.00,0.0036
1733.00,0.0035
1732.00,0.0034
1731.00,0.0034
1730.00,0.0033
1729.00,0.0033
1728.00,0.0032
1727.00,0.0031
1726.00,0.0031
1725.00,0.0030
1724.00,0.0029
1723.00,0.0028
1722.00,0.0028
1721.00,0.0027
1720.00,0.0027
1719.00,0.0027
1718.00,0.0027
1717.00,0.0026
1716.00,0.0025
1715.00,0.0025
1714.00,0.0024
1713.00,0.0024
1712.00,0.0024
1711.00,0.0024
1710.00,0.0023
1709.00,0.0023
1708.00,0.0023
1707.00,0.0022
1706.00,0.0022
1705.00,0.0022
1704.00,0.0022
1703.00,0.0022
1702.00,0.0022
1701.00,0.0022
1700.00,0.0022
1699.00,0.0022
1698.00,0.0023
1697.00,0.0023
1696.00,0.0023
1695.00,0.0023
1694.00,0.0023
1693.00,0.0023
1692.00,0.0023
1691.00,0.0024
1690.00,0.0024
1689.00,0.0024
1688.00,0.0025
1687.00,0.0025
1686.00,0.0025
1685.00,0.0026
1684.00,0.0026
1683.00,0.0026
1682.00,0.0027
1681.00,0.0027
1680.00,0.0027
1679.00,0.0027
1678.00,0.0027
1677.00,0.0028
1676.00,0.0028
1675.00,0.0028
1674.00,0.0028
1673.00,0.0029
1672.00,0.0029
1671.00,0.0029
1670.00,0.0029
1669.00,0.0029
1668.00,0.0029
1667.00,0.0029
1666.00,0.0029
1665.00,0.0029
1664.00,0.0029
1663.00,0.0028
1662.00,0.0028
1661.00,0.0028
1660.00,0.0027
1659.00,0.0028
1658.00,0.0028
1657.00,0.0028
1656.00,0.0028
1655.00,0.0028
1654.00,0.0028
1653.00,0.0027
1652.00,0.0026
1651.00,0.0026
1650.00,0.0026
1649.00,0.0026
1648.00,0.0026
1647.00,0.0026
1646.00,0.0025
1645.00,0.0025
1644.00,0.0024
1643.00,0.0024
1642.00,0.0024
1641.00,0.0024
1640.00,0.0024
1639.00,0.0024
1638.00,0.0024
1637.00,0.0023
1636.00,0.0023
1635.00,0.0023
1634.00,0.0023
1633.00,0.0023
1632.00,0.0022
1631.00,0.0022
1630.00,0.0022
1629.00,0.0023
1628.00,0.0023
1627.00,0.0023
1626.00,0.0023
1625.00,0.0023
1624.00,0.0023
1623.00,0.0023
1622.00,0.0023
1621.00,0.0023
1620.00,0.0022
1619.00,0.0022
1618.00,0.0022
1617.00,0.0022
1616.00,0.0023
1615.00,0.0023
1614.00,0.0024
1613.00,0.0024
1612.00,0.0025
1611.00,0.0026
1610.00,0.0028
1609.00,0.0031
1608.00,0.0035
1607.00,0.0039
1606.00,0.0045
1605.00,0.0051
1604.00,0.0057
1603.00,0.0063
1602.00,0.0067
1601.00,0.0069
1600.00,0.0069
1599.00,0.0065
1598.00,0.0060
1597.00,0.0054
1596.00,0.0048
1595.00,0.0043
1594.00,0.0039
1593.00,0.0036
1592.00,0.0033
1591.00,0.0032
1590.00,0.0031
1589.00,0.0030
1588.00,0.0030
1587.00,0.0031
1586.00,0.0033
1585.00,0.0035
1584.00,0.0037
1583.00,0.0038
1582.00,0.0037
1581.00,0.0035
1580.00,0.0032
1579.00,0.0029
1578.00,0.0027
1577.00,0.0025
1576.00,0.0023
1575.00,0.0023
1574.00,0.0022
1573.00,0.0022
1572.00,0.0022
1571.00,0.0021
1570.00,0.0021
1569.00,0.0021
1568.00,0.0020
1567.00,0.0020
1566.00,0.0020
1565.00,0.0020
1564.00,0.0020
1563.00,0.0020
1562.00,0.0020
1561.00,0.0020
1560.00,0.0020
1559.00,0.0020
1558.00,0.0020
1557.00,0.0020
1556.00,0.0020
1555.00,0.0021
1554.00,0.0021
1553.00,0.0021
1552.00,0.0022
1551.00,0.0022
1550.00,0.0022
1549.00,0.0023
1548.00,0.0023
1547.00,0.0023
1546.00,0.0023
1545.00,0.0023
1544.00,0.0023
1543.00,0.0023
1542.00,0.0023
1541.00,0.0023
1540.00,0.0023
1539.00,0.0023
1538.00,0.0023
1537.00,0.0022
1536.00,0.0022
1535.00,0.0021
1534.00,0.0021
1533.00,0.0021
1532.00,0.0020
1531.00,0.0020
1530.00,0.0019
1529.00,0.0019
1528.00,0.0019
1527.00,0.0019
1526.00,0.0019
1525.00,0.0019
1524.00,0.0018
1523.00,0.0018
1522.00,0.0018
1521.00,0.0018
1520.00,0.0018
1519.00,0.0018
1518.00,0.0018
1517.00,0.0018
1516.00,0.0019
1515.00,0.0019
1514.00,0.0019
1513.00,0.0019
1512.00,0.0019
1511.00,0.0019
1510.00,0.0019
1509.00,0.0020
1508.00,0.0020
1507.00,0.0020
1506.00,0.0021
1505.00,0.0022
1504.00,0.0023
1503.00,0.0025
1502.00,0.0027
1501.00,0.0030
1500.00,0.0034
1499.00,0.0041
1498.00,0.0051
1497.00,0.0067
1496.00,0.0088
1495.00,0.0112
1494.00,0.0133
1493.00,0.0149
1492.00,0.0154
1491.00,0.0146
1490.00,0.0127
1489.00,0.0104
1488.00,0.0084
1487.00,0.0069
1486.00,0.0058
1485.00,0.0050
1484.00,0.0044
1483.00,0.0039
1482.00,0.0036
1481.00,0.0033
1480.00,0.0031
1479.00,0.0029
1478.00,0.0029
1477.00,0.0028
1476.00,0.0028
1475.00,0.0028
1474.00,0.0028
1473.00,0.0028
1472.00,0.0029
1471.00,0.0029
1470.00,0.0030
1469.00,0.0030
1468.00,0.0031
1467.00,0.0032
1466.00,0.0033
1465.00,0.0034
1464.00,0.0035
1463.00,0.0035
1462.00,0.0037
1461.00,0.0039
1460.00,0.0042
1459.00,0.0047
1458.00,0.0055
1457.00,0.0069
1456.00,0.0088
1455.00,0.0109
1454.00,0.0129
1453.00,0.0146
1452.00,0.0156
1451.00,0.0158
1450.00,0.0153
1449.00,0.0143
1448.00,0.0131
1447.00,0.0120
1446.00,0.0111
1445.00,0.0104
1444.00,0.0097
1443.00,0.0091
1442.00,0.0084
1441.00,0.0079
1440.00,0.0074
1439.00,0.0070
1438.00,0.0065
1437.00,0.0060
1436.00,0.0055
1435.00,0.0050
1434.00,0.0047
1433.00,0.0044
1432.00,0.0041
1431.00,0.0038
1430.00,0.0036
1429.00,0.0035
1428.00,0.0034
1427.00,0.0033
1426.00,0.0032
1425.00,0.0031
1424.00,0.0031
1423.00,0.0030
1422.00,0.0030
1421.00,0.0029
1420.00,0.0029
1419.00,0.0029
1418.00,0.0029
1417.00,0.0028
1416.00,0.0027
1415.00,0.0027
1414.00,0.0027
1413.00,0.0027
1412.00,0.0026
1411.00,0.0026
1410.00,0.0026
1409.00,0.0026
1408.00,0.0026
1407.00,0.0025
1406.00,0.0025
1405.00,0.0025
1404.00,0.0025
1403.00,0.0025
1402.00,0.0025
1401.00,0.0026
1400.00,0.0026
1399.00,0.0026
1398.00,0.0027
1397.00,0.0027
1396.00,0.0027
1395.00,0.0027
1394.00,0.0028
1393.00,0.0029
1392.00,0.0029
1391.00,0.0030
1390.00,0.0031
1389.00,0.0032
1388.00,0.0033
1387.00,0.0034
1386.00,0.0035
1385.00,0.0036
1384.00,0.0038
1383.00,0.0039
1382.00,0.0040
1381.00,0.0040
1380.00,0.0041
1379.00,0.0042
1378.00,0.0043
1377.00,0.0044
1376.00,0.0045
1375.00,0.0046
1374.00,0.0047
1373.00,0.0047
1372.00,0.0047
1371.00,0.0046
1370.00,0.0046
1369.00,0.0046
1368.00,0.0046
1367.00,0.0045
1366.00,0.0045
1365.00,0.0045
1364.00,0.0045
1363.00,0.0044
1362.00,0.0044
1361.00,0.0043
1360.00,0.0042
1359.00,0.0042
1358.00,0.0042
1357.00,0.0042
1356.00,0.0041
1355.00,0.0041
1354.00,0.0041
1353.00,0.0041
1352.00,0.0040
1351.00,0.0040
1350.00,0.0040
1349.00,0.0040
1348.00,0.0040
1347.00,0.0039
1346.00,0.0039
1345.00,0.0038
1344.00,0.0038
1343.00,0.0037
1342.00,0.0037
1341.00,0.0037
1340.00,0.0037
1339.00,0.0037
1338.00,0.0036
1337.00,0.0036
1336.00,0.0036
1335.00,0.0037
1334.00,0.0037
1333.00,0.0038
1332.00,0.0039
1331.00,0.0040
1330.00,0.0040
1329.00,0.0041
1328.00,0.0041
1327.00,0.0041
1326.00,0.0041
1325.00,0.0040
1324.00,0.0040
1323.00,0.0039
1322.00,0.0039
1321.00,0.0039
1320.00,0.0038
1319.00,0.0038
1318.00,0.0038
1317.00,0.0039
1316.00,0.0039
1315.00,0.0039
1314.00,0.0040
1313.00,0.0040
1312.00,0.0040
1311.00,0.0039
1310.00,0.0039
1309.00,0.0039
1308.00,0.0039
1307.00,0.0039
1306.00,0.0038
1305.00,0.0038
1304.00,0.0038
1303.00,0.0037
1302.00,0.0037
1301.00,0.0036
1300.00,0.0036
1299.00,0.0036
1298.00,0.0036
1297.00,0.0036
1296.00,0.0036
1295.00,0.0036
1294.00,0.0036
1293.00,0.0036
1292.00,0.0036
1291.00,0.0036
1290.00,0.0036
1289.00,0.0036
1288.00,0.0036
1287.00,0.0035
1286.00,0.0035
1285.00,0.0035
1284.00,0.0035
1283.00,0.0035
1282.00,0.0035
1281.00,0.0035
1280.00,0.0035
1279.00,0.0034
1278.00,0.0034
1277.00,0.0034
1276.00,0.0033
1275.00,0.0033
1274.00,0.0033
1273.00,0.0033
1272.00,0.0032
1271.00,0.0032
1270.00,0.0031
1269.00,0.0031
1268.00,0.0031
1267.00,0.0031
1266.00,0.0031
1265.00,0.0031
1264.00,0.0030
1263.00,0.0030
1262.00,0.0030
1261.00,0.0029
1260.00,0.0029
1259.00,0.0029
1258.00,0.0029
1257.00,0.0029
1256.00,0.0029
1255.00,0.0030
1254.00,0.0030
1253.00,0.0030
1252.00,0.0030
1251.00,0.0030
1250.00,0.0031
1249.00,0.0031
1248.00,0.0031
1247.00,0.0031
1246.00,0.0031
1245.00,0.0031
1244.00,0.0031
1243.00,0.0031
1242.00,0.0031
1241.00,0.0030
1240.00,0.0030
1239.00,0.0030
1238.00,0.0030
1237.00,0.0031
1236.00,0.0031
1235.00,0.0031
1234.00,0.0031
1233.00,0.0031
1232.00,0.0031
1231.00,0.0030
1230.00,0.0031
1229.00,0.0030
1228.00,0.0030
1227.00,0.0030
1226.00,0.0030
1225.00,0.0030
1224.00,0.0030
1223.00,0.0030
1222.00,0.0030
1221.00,0.0031
1220.00,0.0030
1219.00,0.0030
1218.00,0.0030
1217.00,0.0030
1216.00,0.0030
1215.00,0.0030
1214.00,0.0031
1213.00,0.0031
1212.00,0.0031
1211.00,0.0032
1210.00,0.0032
1209.00,0.0032
1208.00,0.0033
1207.00,0.0033
1206.00,0.0034
1205.00,0.0035
1204.00,0.0035
1203.00,0.0036
1202.00,0.0037
1201.00,0.0037
1200.00,0.0038
1199.00,0.0039
1198.00,0.0039
1197.00,0.0040
1196.00,0.0040
1195.00,0.0040
1194.00,0.0040
1193.00,0.0040
1192.00,0.0040
1191.00,0.0041
1190.00,0.0041
1189.00,0.0042
1188.00,0.0042
1187.00,0.0043
1186.00,0.0045
1185.00,0.0046
1184.00,0.0048
1183.00,0.0050
1182.00,0.0052
1181.00,0.0052
1180.00,0.0052
1179.00,0.0050
1178.00,0.0048
1177.00,0.0046
1176.00,0.0044
1175.00,0.0043
1174.00,0.0042
1173.00,0.0041
1172.00,0.0039
1171.00,0.0039
1170.00,0.0038
1169.00,0.0038
1168.00,0.0038
1167.00,0.0038
1166.00,0.0038
1165.00,0.0038
1164.00,0.0038
1163.00,0.0038
1162.00,0.0039
1161.00,0.0040
1160.00,0.0042
1159.00,0.0044
1158.00,0.0046
1157.00,0.0048
1156.00,0.0050
1155.00,0.0051
1154.00,0.0051
1153.00,0.0050
1152.00,0.0048
1151.00,0.0045
1150.00,0.0043
1149.00,0.0040
1148.00,0.0038
1147.00,0.0036
1146.00,0.0034
1145.00,0.0033
1144.00,0.0032
1143.00,0.0030
1142.00,0.0030
1141.00,0.0029
1140.00,0.0028
1139.00,0.0028
1138.00,0.0028
1137.00,0.0027
1136.00,0.0027
1135.00,0.0027
1134.00,0.0027
1133.00,0.0027
1132.00,0.0026
1131.00,0.0026
1130.00,0.0026
1129.00,0.0027
1128.00,0.0027
1127.00,0.0027
1126.00,0.0027
1125.00,0.0027
1124.00,0.0027
1123.00,0.0027
1122.00,0.0028
1121.00,0.0029
1120.00,0.0029
1119.00,0.0030
1118.00,0.0031
1117.00,0.0032
1116.00,0.0032
1115.00,0.0033
1114.00,0.0033
1113.00,0.0033
1112.00,0.0034
1111.00,0.0034
1110.00,0.0034
1109.00,0.0034
1108.00,0.0034
1107.00,0.0034
1106.00,0.0034
1105.00,0.0034
1104.00,0.0034
1103.00,0.0034
1102.00,0.0034
1101.00,0.0034
1100.00,0.0034
1099.00,0.0034
1098.00,0.0034
1097.00,0.0034
1096.00,0.0034
1095.00,0.0035
1094.00,0.0035
1093.00,0.0036
1092.00,0.0036
1091.00,0.0037
1090.00,0.0037
1089.00,0.0037
1088.00,0.0037
1087.00,0.0038
1086.00,0.0039
1085.00,0.0040
1084.00,0.0040
1083.00,0.0041
1082.00,0.0042
1081.00,0.0043
1080.00,0.0044
1079.00,0.0045
1078.00,0.0046
1077.00,0.0048
1076.00,0.0050
1075.00,0.0052
1074.00,0.0054
1073.00,0.0056
1072.00,0.0058
1071.00,0.0059
1070.00,0.0060
1069.00,0.0060
1068.00,0.0060
1067.00,0.0060
1066.00,0.0059
1065.00,0.0058
1064.00,0.0056
1063.00,0.0054
1062.00,0.0052
1061.00,0.0050
1060.00,0.0048
1059.00,0.0046
1058.00,0.0045
1057.00,0.0044
1056.00,0.0043
1055.00,0.0042
1054.00,0.0042
1053.00,0.0041
1052.00,0.0040
1051.00,0.0040
1050.00,0.0040
1049.00,0.0039
1048.00,0.0038
1047.00,0.0038
1046.00,0.0038
1045.00,0.0037
1044.00,0.0037
1043.00,0.0037
1042.00,0.0038
1041.00,0.0038
1040.00,0.0038
1039.00,0.0039
1038.00,0.0041
1037.00,0.0044
1036.00,0.0048
1035.00,0.0054
1034.00,0.0061
1033.00,0.0069
1032.00,0.0077
1031.00,0.0085
1030.00,0.0092
1029.00,0.0096
1028.00,0.0098
1027.00,0.0097
1026.00,0.0094
1025.00,0.0088
1024.00,0.0082
1023.00,0.0076
1022.00,0.0071
1021.00,0.0066
1020.00,0.0063
1019.00,0.0060
1018.00,0.0057
1017.00,0.0055
1016.00,0.0053
1015.00,0.0051
1014.00,0.0050
1013.00,0.0048
1012.00,0.0047
1011.00,0.0045
1010.00,0.0045
1009.00,0.0044
1008.00,0.0044
1007.00,0.0044
1006.00,0.0045
1005.00,0.0046
1004.00,0.0047
1003.00,0.0047
1002.00,0.0047
1001.00,0.0045
1000.00,0.0043
999.00,0.0041
998.00,0.0039
997.00,0.0038
996.00,0.0036
995.00,0.0035
994.00,0.0035
993.00,0.0035
992.00,0.0035
991.00,0.0035
990.00,0.0036
989.00,0.0036
988.00,0.0037
987.00,0.0038
986.00,0.0039
985.00,0.0041
984.00,0.0042
983.00,0.0042
982.00,0.0043
981.00,0.0044
980.00,0.0044
979.00,0.0043
978.00,0.0043
977.00,0.0042
976.00,0.0041
975.00,0.0040
974.00,0.0040
973.00,0.0040
972.00,0.0040
971.00,0.0040
970.00,0.0041
969.00,0.0042
968.00,0.0043
967.00,0.0045
966.00,0.0046
965.00,0.0047
964.00,0.0047
963.00,0.0046
962.00,0.0045
961.00,0.0044
960.00,0.0042
959.00,0.0040
958.00,0.0038
957.00,0.0037
956.00,0.0035
955.00,0.0034
954.00,0.0034
953.00,0.0034
952.00,0.0034
951.00,0.0034
950.00,0.0035
949.00,0.0036
948.00,0.0036
947.00,0.0037
946.00,0.0037
945.00,0.0037
944.00,0.0037
943.00,0.0038
942.00,0.0038
941.00,0.0038
940.00,0.0038
939.00,0.0037
938.00,0.0036
937.00,0.0035
936.00,0.0033
935.00,0.0031
934.00,0.0030
933.00,0.0029
932.00,0.0029
931.00,0.0028
930.00,0.0027
929.00,0.0027
928.00,0.0027
927.00,0.0028
926.00,0.0028
925.00,0.0029
924.00,0.0029
923.00,0.0030
922.00,0.0031
921.00,0.0031
920.00,0.0032
919.00,0.0033
918.00,0.0035
917.00,0.0036
916.00,0.0039
915.00,0.0042
914.00,0.0046
913.00,0.0050
912.00,0.0054
911.00,0.0058
910.00,0.0062
909.00,0.0066
908.00,0.0069
907.00,0.0071
906.00,0.0071
905.00,0.0070
904.00,0.0068
903.00,0.0064
902.00,0.0059
901.00,0.0055
900.00,0.0049
899.00,0.0045
898.00,0.0041
897.00,0.0038
896.00,0.0035
895.00,0.0032
894.00,0.0030
893.00,0.0029
892.00,0.0028
891.00,0.0027
890.00,0.0027
889.00,0.0027
888.00,0.0026
887.00,0.0026
886.00,0.0026
885.00,0.0026
884.00,0.0026
883.00,0.0025
882.00,0.0025
881.00,0.0025
880.00,0.0024
879.00,0.0023
878.00,0.0022
877.00,0.0022
876.00,0.0022
875.00,0.0022
874.00,0.0022
873.00,0.0023
872.00,0.0022
871.00,0.0022
870.00,0.0022
869.00,0.0022
868.00,0.0022
867.00,0.0022
866.00,0.0022
865.00,0.0022
864.00,0.0021
863.00,0.0021
862.00,0.0021
861.00,0.0021
860.00,0.0021
859.00,0.0021
858.00,0.0021
857.00,0.0022
856.00,0.0022
855.00,0.0023
854.00,0.0024
853.00,0.0025
852.00,0.0026
851.00,0.0027
850.00,0.0029
849.00,0.0031
848.00,0.0033
847.00,0.0035
846.00,0.0037
845.00,0.0039
844.00,0.0040
843.00,0.0041
842.00,0.0041
841.00,0.0041
840.00,0.0041
839.00,0.0039
838.00,0.0038
837.00,0.0036
836.00,0.0034
835.00,0.0031
834.00,0.0029
833.00,0.0028
832.00,0.0026
831.00,0.0025
830.00,0.0025
829.00,0.0024
828.00,0.0024
827.00,0.0024
826.00,0.0023
825.00,0.0023
824.00,0.0023
823.00,0.0022
822.00,0.0022
821.00,0.0023
820.00,0.0022
819.00,0.0022
818.00,0.0022
817.00,0.0022
816.00,0.0023
815.00,0.0023
814.00,0.0023
813.00,0.0023
812.00,0.0023
811.00,0.0023
810.00,0.0024
809.00,0.0024
808.00,0.0024
807.00,0.0025
806.00,0.0025
805.00,0.0025
804.00,0.0025
803.00,0.0025
802.00,0.0026
801.00,0.0027
800.00,0.0027
799.00,0.0028
798.00,0.0029
797.00,0.0030
796.00,0.0030
795.00,0.0031
794.00,0.0033
793.00,0.0035
792.00,0.0036
791.00,0.0038
790.00,0.0040
789.00,0.0042
788.00,0.0044
787.00,0.0046
786.00,0.0048
785.00,0.0051
784.00,0.0053
783.00,0.0056
782.00,0.0059
781.00,0.0063
780.00,0.0068
779.00,0.0073
778.00,0.0079
777.00,0.0086
776.00,0.0093
775.00,0.0101
774.00,0.0110
773.00,0.0119
772.00,0.0128
771.00,0.0138
770.00,0.0149
769.00,0.0160
768.00,0.0171
767.00,0.0182
766.00,0.0194
765.00,0.0206
764.00,0.0216
763.00,0.0227
762.00,0.0239
761.00,0.0250
760.00,0.0261
759.00,0.0272
758.00,0.0281
757.00,0.0289
756.00,0.0294
755.00,0.0296
754.00,0.0297
753.00,0.0297
752.00,0.0296
751.00,0.0295
750.00,0.0295
749.00,0.0295
748.00,0.0293
747.00,0.0289
746.00,0.0282
745.00,0.0271
744.00,0.0256
743.00,0.0237
742.00,0.0218
741.00,0.0199
740.00,0.0180
739.00,0.0163
738.00,0.0148
737.00,0.0134
736.00,0.0121
735.00,0.0108
734.00,0.0096
733.00,0.0085
732.00,0.0074
731.00,0.0066
730.00,0.0060
729.00,0.0055
728.00,0.0051
727.00,0.0049
726.00,0.0047
725.00,0.0046
724.00,0.0044
723.00,0.0043
722.00,0.0043
721.00,0.0043
720.00,0.0043
719.00,0.0043
718.00,0.0045
717.00,0.0046
716.00,0.0049
715.00,0.0052
714.00,0.0057
713.00,0.0064
712.00,0.0073
711.00,0.0086
710.00,0.0104
709.00,0.0127
708.00,0.0157
707.00,0.0195
706.00,0.0240
705.00,0.0293
704.00,0.0351
703.00,0.0416
702.00,0.0486
701.00,0.0559
700.00,0.0631
699.00,0.0702
698.00,0.0770
697.00,0.0832
696.00,0.0881
695.00,0.0908
694.00,0.0905
693.00,0.0866
692.00,0.0798
691.00,0.0713
690.00,0.0626
689.00,0.0546
688.00,0.0478
687.00,0.0422
686.00,0.0377
685.00,0.0340
684.00,0.0309
683.00,0.0283
682.00,0.0261
681.00,0.0243
680.00,0.0227
679.00,0.0213
678.00,0.0201
677.00,0.0190
676.00,0.0180
675.00,0.0172
674.00,0.0166
673.00,0.0161
672.00,0.0156
671.00,0.0152
670.00,0.0149
669.00,0.0145
668.00,0.0139
667.00,0.0132
666.00,0.0127
665.00,0.0122
664.00,0.0117
663.00,0.0113
662.00,0.0110
661.00,0.0106
660.00,0.0102
659.00,0.0098
658.00,0.0094
657.00,0.0091
656.00,0.0087
655.00,0.0083
654.00,0.0080
653.00,0.0077
652.00,0.0074
651.00,0.0072
650.00,0.0070
649.00,0.0068
648.00,0.0066
647.00,0.0064
646.00,0.0063
645.00,0.0063
644.00,0.0061
643.00,0.0061
642.00,0.0061
641.00,0.0061
640.00,0.0062
639.00,0.0062
638.00,0.0064
637.00,0.0065
636.00,0.0066
635.00,0.0067
634.00,0.0069
633.00,0.0070
632.00,0.0071
631.00,0.0072
630.00,0.0073
629.00,0.0074
628.00,0.0074
627.00,0.0075
626.00,0.0077
625.00,0.0079
624.00,0.0080
623.00,0.0081
622.00,0.0083
621.00,0.0083
620.00,0.0082
619.00,0.0080
618.00,0.0078
617.00,0.0077
616.00,0.0075
615.00,0.0073
614.00,0.0072
613.00,0.0071
612.00,0.0069
611.00,0.0068
610.00,0.0068
609.00,0.0068
608.00,0.0067
607.00,0.0066
606.00,0.0066
605.00,0.0067
604.00,0.0067
603.00,0.0067
602.00,0.0068
601.00,0.0069
600.00,0.0070
599.00,0.0071
598.00,0.0073
597.00,0.0074
596.00,0.0073
595.00,0.0072
594.00,0.0072
593.00,0.0072
592.00,0.0072
591.00,0.0073
590.00,0.0075
589.00,0.0076
588.00,0.0077
587.00,0.0078
586.00,0.0079
585.00,0.0080
584.00,0.0081
583.00,0.0083
582.00,0.0087
581.00,0.0090
580.00,0.0092
579.00,0.0095
578.00,0.0100
577.00,0.0105
576.00,0.0109
575.00,0.0112
574.00,0.0116
573.00,0.0120
572.00,0.0124
571.00,0.0130
570.00,0.0136
569.00,0.0140
568.00,0.0144
567.00,0.0147
566.00,0.0153
565.00,0.0158
564.00,0.0163
563.00,0.0168
562.00,0.0172
561.00,0.0176
560.00,0.0178
559.00,0.0182
558.00,0.0186
557.00,0.0192
556.00,0.0196
555.00,0.0201
554.00,0.0208
553.00,0.0214
552.00,0.0220
551.00,0.0226
550.00,0.0233
549.00,0.0240
548.00,0.0249
547.00,0.0259
546.00,0.0269
545.00,0.0280
544.00,0.0290
543.00,0.0301
542.00,0.0314
541.00,0.0326
540.00,0.0335
539.00,0.0343
538.00,0.0348
537.00,0.0348
536.00,0.0343
535.00,0.0334
534.00,0.0323
533.00,0.0309
532.00,0.0293
531.00,0.0276
530.00,0.0260
529.00,0.0244
528.00,0.0228
527.00,0.0213
526.00,0.0202
525.00,0.0191
524.00,0.0179
523.00,0.0169
522.00,0.0161
521.00,0.0155
520.00,0.0149
519.00,0.0145
518.00,0.0142
517.00,0.0138
516.00,0.0133
515.00,0.0128
514.00,0.0125
513.00,0.0123
512.00,0.0120
511.00,0.0116
510.00,0.0112
509.00,0.0108
508.00,0.0103
507.00,0.0101
506.00,0.0100
505.00,0.0099
504.00,0.0095
503.00,0.0092
502.00,0.0091
501.00,0.0090
500.00,0.0087
499.00,0.0085
498.00,0.0084
497.00,0.0083
496.00,0.0081
495.00,0.0079
494.00,0.0079
493.00,0.0078
492.00,0.0075
491.00,0.0072
490.00,0.0072
489.00,0.0073
488.00,0.0072
487.00,0.0072
486.00,0.0072
485.00,0.0073
484.00,0.0072
483.00,0.0071
482.00,0.0073
481.00,0.0074
480.00,0.0072
479.00,0.0069
478.00,0.0069
477.00,0.0069
476.00,0.0067
475.00,0.0067
474.00,0.0069
473.00,0.0069
472.00,0.0067
471.00,0.0064
470.00,0.0064
469.00,0.0065
468.00,0.0064
467.00,0.0064
466.00,0.0066
465.00,0.0065
464.00,0.0060
463.00,0.0056
462.00,0.0057
461.00,0.0060
460.00,0.0063
459.00,0.0066
458.00,0.0071
457.00,0.0072
456.00,0.0067
455.00,0.0062
454.00,0.0062
453.00,0.0063
452.00,0.0062
451.00,0.0061
450.00,0.0062
449.00,0.0062
448.00,0.0061
447.00,0.0062
446.00,0.0066
445.00,0.0067
444.00,0.0061
443.00,0.0055
442.00,0.0053
441.00,0.0056
440.00,0.0057
439.00,0.0059
438.00,0.0063
437.00,0.0066
436.00,0.0063
435.00,0.0059
434.00,0.0057
433.00,0.0056
432.00,0.0051
431.00,0.0047
430.00,0.0048
429.00,0.0051
428.00,0.0052
427.00,0.0053
426.00,0.0054
425.00,0.0051
424.00,0.0044
423.00,0.0043
422.00,0.0051
421.00,0.0059
420.00,0.0057
419.00,0.0052
418.00,0.0052
417.00,0.0054
416.00,0.0052
415.00,0.0053
414.00,0.0057
413.00,0.0059
412.00,0.0054
411.00,0.0049
410.00,0.0050
409.00,0.0052
408.00,0.0050
407.00,0.0052
406.00,0.0065
405.00,0.0075
404.00,0.0072
403.00,0.0063
402.00,0.0060
401.00,0.0054
400.00,0.0038
