Created as New Dataset,Sample 837 By YargerLab Date Saturday, April 18 2026
cm-1,A
4000.00,0.0047
3999.00,0.0047
3998.00,0.0047
3997.00,0.0047
3996.00,0.0047
3995.00,0.0047
3994.00,0.0047
3993.00,0.0046
3992.00,0.0046
3991.00,0.0046
3990.00,0.0046
3989.00,0.0046
3988.00,0.0046
3987.00,0.0046
3986.00,0.0046
3985.00,0.0046
3984.00,0.0046
3983.00,0.0046
3982.00,0.0046
3981.00,0.0046
3980.00,0.0046
3979.00,0.0046
3978.00,0.0046
3977.00,0.0046
3976.00,0.0046
3975.00,0.0046
3974.00,0.0047
3973.00,0.0047
3972.00,0.0046
3971.00,0.0046
3970.00,0.0046
3969.00,0.0046
3968.00,0.0046
3967.00,0.0046
3966.00,0.0046
3965.00,0.0046
3964.00,0.0046
3963.00,0.0046
3962.00,0.0046
3961.00,0.0046
3960.00,0.0046
3959.00,0.0046
3958.00,0.0046
3957.00,0.0046
3956.00,0.0046
3955.00,0.0046
3954.00,0.0046
3953.00,0.0046
3952.00,0.0046
3951.00,0.0046
3950.00,0.0046
3949.00,0.0046
3948.00,0.0047
3947.00,0.0046
3946.00,0.0046
3945.00,0.0046
3944.00,0.0046
3943.00,0.0045
3942.00,0.0045
3941.00,0.0045
3940.00,0.0046
3939.00,0.0046
3938.00,0.0046
3937.00,0.0046
3936.00,0.0046
3935.00,0.0046
3934.00,0.0046
3933.00,0.0046
3932.00,0.0046
3931.00,0.0046
3930.00,0.0046
3929.00,0.0046
3928.00,0.0046
3927.00,0.0046
3926.00,0.0046
3925.00,0.0046
3924.00,0.0046
3923.00,0.0045
3922.00,0.0045
3921.00,0.0045
3920.00,0.0046
3919.00,0.0046
3918.00,0.0046
3917.00,0.0046
3916.00,0.0046
3915.00,0.0046
3914.00,0.0045
3913.00,0.0045
3912.00,0.0045
3911.00,0.0045
3910.00,0.0045
3909.00,0.0045
3908.00,0.0046
3907.00,0.0046
3906.00,0.0046
3905.00,0.0047
3904.00,0.0047
3903.00,0.0047
3902.00,0.0047
3901.00,0.0047
3900.00,0.0046
3899.00,0.0046
3898.00,0.0046
3897.00,0.0045
3896.00,0.0045
3895.00,0.0045
3894.00,0.0045
3893.00,0.0045
3892.00,0.0045
3891.00,0.0045
3890.00,0.0046
3889.00,0.0046
3888.00,0.0046
3887.00,0.0046
3886.00,0.0046
3885.00,0.0046
3884.00,0.0046
3883.00,0.0046
3882.00,0.0046
3881.00,0.0046
3880.00,0.0045
3879.00,0.0045
3878.00,0.0045
3877.00,0.0045
3876.00,0.0045
3875.00,0.0045
3874.00,0.0045
3873.00,0.0045
3872.00,0.0045
3871.00,0.0045
3870.00,0.0045
3869.00,0.0045
3868.00,0.0045
3867.00,0.0045
3866.00,0.0045
3865.00,0.0045
3864.00,0.0045
3863.00,0.0045
3862.00,0.0045
3861.00,0.0045
3860.00,0.0045
3859.00,0.0045
3858.00,0.0044
3857.00,0.0044
3856.00,0.0044
3855.00,0.0044
3854.00,0.0045
3853.00,0.0045
3852.00,0.0045
3851.00,0.0045
3850.00,0.0045
3849.00,0.0045
3848.00,0.0045
3847.00,0.0045
3846.00,0.0045
3845.00,0.0045
3844.00,0.0045
3843.00,0.0044
3842.00,0.0044
3841.00,0.0044
3840.00,0.0044
3839.00,0.0044
3838.00,0.0044
3837.00,0.0044
3836.00,0.0045
3835.00,0.0045
3834.00,0.0045
3833.00,0.0045
3832.00,0.0044
3831.00,0.0044
3830.00,0.0044
3829.00,0.0044
3828.00,0.0045
3827.00,0.0045
3826.00,0.0044
3825.00,0.0044
3824.00,0.0044
3823.00,0.0045
3822.00,0.0045
3821.00,0.0045
3820.00,0.0044
3819.00,0.0044
3818.00,0.0044
3817.00,0.0044
3816.00,0.0044
3815.00,0.0044
3814.00,0.0044
3813.00,0.0044
3812.00,0.0044
3811.00,0.0044
3810.00,0.0044
3809.00,0.0044
3808.00,0.0044
3807.00,0.0044
3806.00,0.0044
3805.00,0.0044
3804.00,0.0044
3803.00,0.0044
3802.00,0.0044
3801.00,0.0044
3800.00,0.0044
3799.00,0.0044
3798.00,0.0044
3797.00,0.0044
3796.00,0.0044
3795.00,0.0044
3794.00,0.0043
3793.00,0.0043
3792.00,0.0043
3791.00,0.0043
3790.00,0.0043
3789.00,0.0043
3788.00,0.0043
3787.00,0.0044
3786.00,0.0044
3785.00,0.0044
3784.00,0.0044
3783.00,0.0044
3782.00,0.0044
3781.00,0.0044
3780.00,0.0043
3779.00,0.0043
3778.00,0.0043
3777.00,0.0043
3776.00,0.0043
3775.00,0.0043
3774.00,0.0043
3773.00,0.0043
3772.00,0.0043
3771.00,0.0043
3770.00,0.0043
3769.00,0.0043
3768.00,0.0043
3767.00,0.0044
3766.00,0.0044
3765.00,0.0044
3764.00,0.0044
3763.00,0.0043
3762.00,0.0043
3761.00,0.0043
3760.00,0.0043
3759.00,0.0043
3758.00,0.0044
3757.00,0.0044
3756.00,0.0044
3755.00,0.0044
3754.00,0.0044
3753.00,0.0044
3752.00,0.0044
3751.00,0.0044
3750.00,0.0044
3749.00,0.0044
3748.00,0.0043
3747.00,0.0043
3746.00,0.0043
3745.00,0.0043
3744.00,0.0043
3743.00,0.0043
3742.00,0.0044
3741.00,0.0044
3740.00,0.0044
3739.00,0.0044
3738.00,0.0044
3737.00,0.0044
3736.00,0.0044
3735.00,0.0043
3734.00,0.0043
3733.00,0.0043
3732.00,0.0043
3731.00,0.0043
3730.00,0.0043
3729.00,0.0043
3728.00,0.0043
3727.00,0.0043
3726.00,0.0043
3725.00,0.0043
3724.00,0.0043
3723.00,0.0043
3722.00,0.0043
3721.00,0.0042
3720.00,0.0042
3719.00,0.0042
3718.00,0.0042
3717.00,0.0042
3716.00,0.0042
3715.00,0.0042
3714.00,0.0043
3713.00,0.0043
3712.00,0.0042
3711.00,0.0042
3710.00,0.0042
3709.00,0.0041
3708.00,0.0041
3707.00,0.0041
3706.00,0.0042
3705.00,0.0042
3704.00,0.0042
3703.00,0.0042
3702.00,0.0042
3701.00,0.0042
3700.00,0.0041
3699.00,0.0041
3698.00,0.0041
3697.00,0.0041
3696.00,0.0041
3695.00,0.0041
3694.00,0.0041
3693.00,0.0041
3692.00,0.0041
3691.00,0.0041
3690.00,0.0041
3689.00,0.0041
3688.00,0.0041
3687.00,0.0041
3686.00,0.0041
3685.00,0.0041
3684.00,0.0041
3683.00,0.0041
3682.00,0.0040
3681.00,0.0041
3680.00,0.0041
3679.00,0.0041
3678.00,0.0041
3677.00,0.0041
3676.00,0.0041
3675.00,0.0041
3674.00,0.0040
3673.00,0.0040
3672.00,0.0040
3671.00,0.0041
3670.00,0.0040
3669.00,0.0040
3668.00,0.0040
3667.00,0.0040
3666.00,0.0040
3665.00,0.0040
3664.00,0.0040
3663.00,0.0040
3662.00,0.0040
3661.00,0.0040
3660.00,0.0040
3659.00,0.0041
3658.00,0.0041
3657.00,0.0041
3656.00,0.0041
3655.00,0.0041
3654.00,0.0042
3653.00,0.0042
3652.00,0.0043
3651.00,0.0043
3650.00,0.0043
3649.00,0.0042
3648.00,0.0041
3647.00,0.0041
3646.00,0.0041
3645.00,0.0041
3644.00,0.0041
3643.00,0.0041
3642.00,0.0040
3641.00,0.0040
3640.00,0.0040
3639.00,0.0040
3638.00,0.0040
3637.00,0.0040
3636.00,0.0040
3635.00,0.0040
3634.00,0.0040
3633.00,0.0040
3632.00,0.0040
3631.00,0.0040
3630.00,0.0040
3629.00,0.0040
3628.00,0.0040
3627.00,0.0040
3626.00,0.0040
3625.00,0.0040
3624.00,0.0040
3623.00,0.0040
3622.00,0.0040
3621.00,0.0040
3620.00,0.0040
3619.00,0.0040
3618.00,0.0040
3617.00,0.0040
3616.00,0.0040
3615.00,0.0040
3614.00,0.0040
3613.00,0.0041
3612.00,0.0041
3611.00,0.0041
3610.00,0.0040
3609.00,0.0040
3608.00,0.0040
3607.00,0.0040
3606.00,0.0039
3605.00,0.0039
3604.00,0.0039
3603.00,0.0039
3602.00,0.0039
3601.00,0.0039
3600.00,0.0039
3599.00,0.0039
3598.00,0.0040
3597.00,0.0040
3596.00,0.0040
3595.00,0.0039
3594.00,0.0039
3593.00,0.0039
3592.00,0.0039
3591.00,0.0039
3590.00,0.0040
3589.00,0.0040
3588.00,0.0040
3587.00,0.0040
3586.00,0.0039
3585.00,0.0039
3584.00,0.0039
3583.00,0.0039
3582.00,0.0039
3581.00,0.0039
3580.00,0.0039
3579.00,0.0039
3578.00,0.0039
3577.00,0.0039
3576.00,0.0038
3575.00,0.0038
3574.00,0.0038
3573.00,0.0039
3572.00,0.0039
3571.00,0.0039
3570.00,0.0040
3569.00,0.0041
3568.00,0.0041
3567.00,0.0041
3566.00,0.0040
3565.00,0.0039
3564.00,0.0039
3563.00,0.0039
3562.00,0.0038
3561.00,0.0039
3560.00,0.0039
3559.00,0.0039
3558.00,0.0039
3557.00,0.0039
3556.00,0.0039
3555.00,0.0039
3554.00,0.0039
3553.00,0.0039
3552.00,0.0039
3551.00,0.0039
3550.00,0.0039
3549.00,0.0039
3548.00,0.0039
3547.00,0.0039
3546.00,0.0039
3545.00,0.0039
3544.00,0.0039
3543.00,0.0038
3542.00,0.0038
3541.00,0.0038
3540.00,0.0038
3539.00,0.0038
3538.00,0.0038
3537.00,0.0038
3536.00,0.0039
3535.00,0.0039
3534.00,0.0039
3533.00,0.0039
3532.00,0.0039
3531.00,0.0039
3530.00,0.0039
3529.00,0.0039
3528.00,0.0039
3527.00,0.0039
3526.00,0.0040
3525.00,0.0040
3524.00,0.0040
3523.00,0.0039
3522.00,0.0039
3521.00,0.0039
3520.00,0.0039
3519.00,0.0039
3518.00,0.0039
3517.00,0.0038
3516.00,0.0038
3515.00,0.0038
3514.00,0.0038
3513.00,0.0038
3512.00,0.0039
3511.00,0.0039
3510.00,0.0038
3509.00,0.0038
3508.00,0.0038
3507.00,0.0038
3506.00,0.0038
3505.00,0.0038
3504.00,0.0039
3503.00,0.0039
3502.00,0.0039
3501.00,0.0039
3500.00,0.0039
3499.00,0.0039
3498.00,0.0039
3497.00,0.0039
3496.00,0.0039
3495.00,0.0039
3494.00,0.0039
3493.00,0.0039
3492.00,0.0039
3491.00,0.0039
3490.00,0.0039
3489.00,0.0038
3488.00,0.0038
3487.00,0.0038
3486.00,0.0038
3485.00,0.0038
3484.00,0.0039
3483.00,0.0039
3482.00,0.0039
3481.00,0.0039
3480.00,0.0039
3479.00,0.0038
3478.00,0.0038
3477.00,0.0038
3476.00,0.0038
3475.00,0.0039
3474.00,0.0039
3473.00,0.0039
3472.00,0.0039
3471.00,0.0039
3470.00,0.0039
3469.00,0.0038
3468.00,0.0038
3467.00,0.0039
3466.00,0.0039
3465.00,0.0039
3464.00,0.0039
3463.00,0.0039
3462.00,0.0039
3461.00,0.0039
3460.00,0.0039
3459.00,0.0039
3458.00,0.0038
3457.00,0.0038
3456.00,0.0038
3455.00,0.0038
3454.00,0.0038
3453.00,0.0039
3452.00,0.0039
3451.00,0.0039
3450.00,0.0039
3449.00,0.0039
3448.00,0.0039
3447.00,0.0039
3446.00,0.0039
3445.00,0.0039
3444.00,0.0039
3443.00,0.0038
3442.00,0.0038
3441.00,0.0038
3440.00,0.0038
3439.00,0.0038
3438.00,0.0038
3437.00,0.0038
3436.00,0.0038
3435.00,0.0038
3434.00,0.0038
3433.00,0.0038
3432.00,0.0038
3431.00,0.0038
3430.00,0.0038
3429.00,0.0038
3428.00,0.0038
3427.00,0.0038
3426.00,0.0037
3425.00,0.0037
3424.00,0.0038
3423.00,0.0038
3422.00,0.0038
3421.00,0.0038
3420.00,0.0038
3419.00,0.0038
3418.00,0.0038
3417.00,0.0038
3416.00,0.0038
3415.00,0.0038
3414.00,0.0038
3413.00,0.0038
3412.00,0.0038
3411.00,0.0038
3410.00,0.0038
3409.00,0.0038
3408.00,0.0038
3407.00,0.0038
3406.00,0.0038
3405.00,0.0038
3404.00,0.0038
3403.00,0.0037
3402.00,0.0037
3401.00,0.0038
3400.00,0.0038
3399.00,0.0038
3398.00,0.0038
3397.00,0.0038
3396.00,0.0038
3395.00,0.0038
3394.00,0.0038
3393.00,0.0037
3392.00,0.0037
3391.00,0.0037
3390.00,0.0037
3389.00,0.0037
3388.00,0.0037
3387.00,0.0037
3386.00,0.0037
3385.00,0.0037
3384.00,0.0037
3383.00,0.0037
3382.00,0.0037
3381.00,0.0037
3380.00,0.0037
3379.00,0.0038
3378.00,0.0038
3377.00,0.0038
3376.00,0.0038
3375.00,0.0038
3374.00,0.0038
3373.00,0.0038
3372.00,0.0038
3371.00,0.0038
3370.00,0.0038
3369.00,0.0038
3368.00,0.0038
3367.00,0.0038
3366.00,0.0037
3365.00,0.0037
3364.00,0.0037
3363.00,0.0037
3362.00,0.0038
3361.00,0.0038
3360.00,0.0038
3359.00,0.0038
3358.00,0.0038
3357.00,0.0038
3356.00,0.0038
3355.00,0.0038
3354.00,0.0038
3353.00,0.0038
3352.00,0.0038
3351.00,0.0038
3350.00,0.0037
3349.00,0.0037
3348.00,0.0037
3347.00,0.0037
3346.00,0.0037
3345.00,0.0037
3344.00,0.0037
3343.00,0.0037
3342.00,0.0037
3341.00,0.0037
3340.00,0.0037
3339.00,0.0037
3338.00,0.0037
3337.00,0.0037
3336.00,0.0037
3335.00,0.0037
3334.00,0.0037
3333.00,0.0037
3332.00,0.0037
3331.00,0.0037
3330.00,0.0037
3329.00,0.0037
3328.00,0.0037
3327.00,0.0037
3326.00,0.0037
3325.00,0.0037
3324.00,0.0037
3323.00,0.0037
3322.00,0.0037
3321.00,0.0037
3320.00,0.0037
3319.00,0.0037
3318.00,0.0037
3317.00,0.0037
3316.00,0.0037
3315.00,0.0037
3314.00,0.0037
3313.00,0.0037
3312.00,0.0037
3311.00,0.0037
3310.00,0.0037
3309.00,0.0037
3308.00,0.0037
3307.00,0.0037
3306.00,0.0036
3305.00,0.0036
3304.00,0.0036
3303.00,0.0036
3302.00,0.0036
3301.00,0.0036
3300.00,0.0036
3299.00,0.0036
3298.00,0.0036
3297.00,0.0036
3296.00,0.0036
3295.00,0.0036
3294.00,0.0036
3293.00,0.0036
3292.00,0.0037
3291.00,0.0037
3290.00,0.0036
3289.00,0.0036
3288.00,0.0036
3287.00,0.0036
3286.00,0.0036
3285.00,0.0036
3284.00,0.0036
3283.00,0.0036
3282.00,0.0036
3281.00,0.0036
3280.00,0.0036
3279.00,0.0036
3278.00,0.0036
3277.00,0.0036
3276.00,0.0036
3275.00,0.0036
3274.00,0.0036
3273.00,0.0036
3272.00,0.0036
3271.00,0.0036
3270.00,0.0036
3269.00,0.0036
3268.00,0.0036
3267.00,0.0036
3266.00,0.0036
3265.00,0.0036
3264.00,0.0036
3263.00,0.0036
3262.00,0.0036
3261.00,0.0036
3260.00,0.0036
3259.00,0.0035
3258.00,0.0035
3257.00,0.0035
3256.00,0.0036
3255.00,0.0036
3254.00,0.0036
3253.00,0.0035
3252.00,0.0035
3251.00,0.0035
3250.00,0.0035
3249.00,0.0035
3248.00,0.0035
3247.00,0.0035
3246.00,0.0035
3245.00,0.0035
3244.00,0.0035
3243.00,0.0035
3242.00,0.0035
3241.00,0.0035
3240.00,0.0034
3239.00,0.0034
3238.00,0.0034
3237.00,0.0034
3236.00,0.0035
3235.00,0.0035
3234.00,0.0035
3233.00,0.0035
3232.00,0.0035
3231.00,0.0035
3230.00,0.0035
3229.00,0.0035
3228.00,0.0035
3227.00,0.0035
3226.00,0.0035
3225.00,0.0034
3224.00,0.0034
3223.00,0.0034
3222.00,0.0034
3221.00,0.0034
3220.00,0.0034
3219.00,0.0034
3218.00,0.0034
3217.00,0.0034
3216.00,0.0034
3215.00,0.0034
3214.00,0.0034
3213.00,0.0034
3212.00,0.0034
3211.00,0.0034
3210.00,0.0034
3209.00,0.0034
3208.00,0.0034
3207.00,0.0034
3206.00,0.0034
3205.00,0.0034
3204.00,0.0034
3203.00,0.0034
3202.00,0.0034
3201.00,0.0034
3200.00,0.0034
3199.00,0.0034
3198.00,0.0034
3197.00,0.0035
3196.00,0.0035
3195.00,0.0034
3194.00,0.0034
3193.00,0.0034
3192.00,0.0033
3191.00,0.0033
3190.00,0.0033
3189.00,0.0033
3188.00,0.0033
3187.00,0.0033
3186.00,0.0033
3185.00,0.0033
3184.00,0.0033
3183.00,0.0033
3182.00,0.0034
3181.00,0.0034
3180.00,0.0034
3179.00,0.0034
3178.00,0.0033
3177.00,0.0033
3176.00,0.0033
3175.00,0.0033
3174.00,0.0034
3173.00,0.0034
3172.00,0.0034
3171.00,0.0034
3170.00,0.0034
3169.00,0.0034
3168.00,0.0034
3167.00,0.0034
3166.00,0.0034
3165.00,0.0033
3164.00,0.0033
3163.00,0.0033
3162.00,0.0033
3161.00,0.0033
3160.00,0.0033
3159.00,0.0033
3158.00,0.0033
3157.00,0.0033
3156.00,0.0033
3155.00,0.0033
3154.00,0.0033
3153.00,0.0033
3152.00,0.0033
3151.00,0.0033
3150.00,0.0032
3149.00,0.0032
3148.00,0.0032
3147.00,0.0032
3146.00,0.0032
3145.00,0.0032
3144.00,0.0032
3143.00,0.0032
3142.00,0.0032
3141.00,0.0032
3140.00,0.0032
3139.00,0.0032
3138.00,0.0032
3137.00,0.0033
3136.00,0.0033
3135.00,0.0033
3134.00,0.0033
3133.00,0.0032
3132.00,0.0032
3131.00,0.0032
3130.00,0.0032
3129.00,0.0032
3128.00,0.0032
3127.00,0.0032
3126.00,0.0032
3125.00,0.0032
3124.00,0.0032
3123.00,0.0033
3122.00,0.0033
3121.00,0.0033
3120.00,0.0033
3119.00,0.0033
3118.00,0.0033
3117.00,0.0033
3116.00,0.0033
3115.00,0.0033
3114.00,0.0033
3113.00,0.0034
3112.00,0.0034
3111.00,0.0034
3110.00,0.0035
3109.00,0.0035
3108.00,0.0036
3107.00,0.0036
3106.00,0.0036
3105.00,0.0037
3104.00,0.0037
3103.00,0.0037
3102.00,0.0037
3101.00,0.0037
3100.00,0.0037
3099.00,0.0037
3098.00,0.0037
3097.00,0.0037
3096.00,0.0037
3095.00,0.0037
3094.00,0.0037
3093.00,0.0037
3092.00,0.0038
3091.00,0.0038
3090.00,0.0039
3089.00,0.0040
3088.00,0.0042
3087.00,0.0043
3086.00,0.0045
3085.00,0.0046
3084.00,0.0048
3083.00,0.0048
3082.00,0.0049
3081.00,0.0049
3080.00,0.0048
3079.00,0.0047
3078.00,0.0046
3077.00,0.0046
3076.00,0.0045
3075.00,0.0044
3074.00,0.0043
3073.00,0.0043
3072.00,0.0043
3071.00,0.0044
3070.00,0.0044
3069.00,0.0045
3068.00,0.0046
3067.00,0.0047
3066.00,0.0048
3065.00,0.0050
3064.00,0.0051
3063.00,0.0053
3062.00,0.0054
3061.00,0.0055
3060.00,0.0056
3059.00,0.0057
3058.00,0.0056
3057.00,0.0056
3056.00,0.0054
3055.00,0.0053
3054.00,0.0051
3053.00,0.0049
3052.00,0.0048
3051.00,0.0046
3050.00,0.0045
3049.00,0.0044
3048.00,0.0044
3047.00,0.0043
3046.00,0.0043
3045.00,0.0042
3044.00,0.0042
3043.00,0.0042
3042.00,0.0043
3041.00,0.0044
3040.00,0.0044
3039.00,0.0045
3038.00,0.0046
3037.00,0.0048
3036.00,0.0050
3035.00,0.0052
3034.00,0.0054
3033.00,0.0057
3032.00,0.0060
3031.00,0.0063
3030.00,0.0067
3029.00,0.0071
3028.00,0.0074
3027.00,0.0077
3026.00,0.0080
3025.00,0.0081
3024.00,0.0081
3023.00,0.0079
3022.00,0.0077
3021.00,0.0073
3020.00,0.0068
3019.00,0.0064
3018.00,0.0059
3017.00,0.0055
3016.00,0.0052
3015.00,0.0049
3014.00,0.0047
3013.00,0.0045
3012.00,0.0044
3011.00,0.0043
3010.00,0.0042
3009.00,0.0041
3008.00,0.0041
3007.00,0.0041
3006.00,0.0041
3005.00,0.0042
3004.00,0.0042
3003.00,0.0042
3002.00,0.0043
3001.00,0.0043
3000.00,0.0043
2999.00,0.0042
2998.00,0.0042
2997.00,0.0041
2996.00,0.0040
2995.00,0.0039
2994.00,0.0038
2993.00,0.0037
2992.00,0.0037
2991.00,0.0037
2990.00,0.0037
2989.00,0.0037
2988.00,0.0037
2987.00,0.0037
2986.00,0.0037
2985.00,0.0036
2984.00,0.0036
2983.00,0.0036
2982.00,0.0037
2981.00,0.0037
2980.00,0.0037
2979.00,0.0037
2978.00,0.0038
2977.00,0.0038
2976.00,0.0038
2975.00,0.0039
2974.00,0.0039
2973.00,0.0039
2972.00,0.0039
2971.00,0.0040
2970.00,0.0040
2969.00,0.0041
2968.00,0.0041
2967.00,0.0042
2966.00,0.0043
2965.00,0.0043
2964.00,0.0044
2963.00,0.0045
2962.00,0.0045
2961.00,0.0046
2960.00,0.0046
2959.00,0.0047
2958.00,0.0047
2957.00,0.0048
2956.00,0.0049
2955.00,0.0050
2954.00,0.0050
2953.00,0.0051
2952.00,0.0052
2951.00,0.0053
2950.00,0.0053
2949.00,0.0054
2948.00,0.0055
2947.00,0.0056
2946.00,0.0057
2945.00,0.0059
2944.00,0.0060
2943.00,0.0062
2942.00,0.0063
2941.00,0.0065
2940.00,0.0067
2939.00,0.0069
2938.00,0.0072
2937.00,0.0074
2936.00,0.0077
2935.00,0.0079
2934.00,0.0082
2933.00,0.0085
2932.00,0.0088
2931.00,0.0091
2930.00,0.0093
2929.00,0.0096
2928.00,0.0098
2927.00,0.0100
2926.00,0.0102
2925.00,0.0103
2924.00,0.0105
2923.00,0.0106
2922.00,0.0107
2921.00,0.0107
2920.00,0.0108
2919.00,0.0107
2918.00,0.0106
2917.00,0.0105
2916.00,0.0103
2915.00,0.0101
2914.00,0.0099
2913.00,0.0097
2912.00,0.0095
2911.00,0.0093
2910.00,0.0091
2909.00,0.0088
2908.00,0.0086
2907.00,0.0084
2906.00,0.0082
2905.00,0.0079
2904.00,0.0077
2903.00,0.0076
2902.00,0.0074
2901.00,0.0072
2900.00,0.0070
2899.00,0.0069
2898.00,0.0067
2897.00,0.0065
2896.00,0.0064
2895.00,0.0062
2894.00,0.0061
2893.00,0.0060
2892.00,0.0059
2891.00,0.0058
2890.00,0.0057
2889.00,0.0056
2888.00,0.0055
2887.00,0.0054
2886.00,0.0053
2885.00,0.0052
2884.00,0.0052
2883.00,0.0051
2882.00,0.0050
2881.00,0.0050
2880.00,0.0049
2879.00,0.0049
2878.00,0.0049
2877.00,0.0048
2876.00,0.0048
2875.00,0.0048
2874.00,0.0048
2873.00,0.0047
2872.00,0.0047
2871.00,0.0047
2870.00,0.0047
2869.00,0.0047
2868.00,0.0047
2867.00,0.0047
2866.00,0.0047
2865.00,0.0048
2864.00,0.0049
2863.00,0.0049
2862.00,0.0050
2861.00,0.0051
2860.00,0.0052
2859.00,0.0054
2858.00,0.0055
2857.00,0.0057
2856.00,0.0058
2855.00,0.0060
2854.00,0.0062
2853.00,0.0063
2852.00,0.0064
2851.00,0.0065
2850.00,0.0065
2849.00,0.0065
2848.00,0.0064
2847.00,0.0063
2846.00,0.0062
2845.00,0.0060
2844.00,0.0058
2843.00,0.0055
2842.00,0.0053
2841.00,0.0051
2840.00,0.0048
2839.00,0.0046
2838.00,0.0044
2837.00,0.0042
2836.00,0.0040
2835.00,0.0039
2834.00,0.0037
2833.00,0.0036
2832.00,0.0036
2831.00,0.0035
2830.00,0.0035
2829.00,0.0034
2828.00,0.0034
2827.00,0.0034
2826.00,0.0034
2825.00,0.0033
2824.00,0.0033
2823.00,0.0033
2822.00,0.0033
2821.00,0.0033
2820.00,0.0032
2819.00,0.0032
2818.00,0.0032
2817.00,0.0032
2816.00,0.0032
2815.00,0.0032
2814.00,0.0032
2813.00,0.0032
2812.00,0.0032
2811.00,0.0032
2810.00,0.0031
2809.00,0.0031
2808.00,0.0031
2807.00,0.0031
2806.00,0.0031
2805.00,0.0031
2804.00,0.0031
2803.00,0.0031
2802.00,0.0031
2801.00,0.0031
2800.00,0.0031
2799.00,0.0031
2798.00,0.0031
2797.00,0.0031
2796.00,0.0031
2795.00,0.0031
2794.00,0.0030
2793.00,0.0030
2792.00,0.0030
2791.00,0.0030
2790.00,0.0030
2789.00,0.0030
2788.00,0.0030
2787.00,0.0030
2786.00,0.0030
2785.00,0.0030
2784.00,0.0029
2783.00,0.0029
2782.00,0.0029
2781.00,0.0029
2780.00,0.0029
2779.00,0.0029
2778.00,0.0029
2777.00,0.0029
2776.00,0.0029
2775.00,0.0029
2774.00,0.0030
2773.00,0.0030
2772.00,0.0030
2771.00,0.0029
2770.00,0.0029
2769.00,0.0029
2768.00,0.0029
2767.00,0.0029
2766.00,0.0029
2765.00,0.0029
2764.00,0.0029
2763.00,0.0029
2762.00,0.0028
2761.00,0.0028
2760.00,0.0028
2759.00,0.0028
2758.00,0.0029
2757.00,0.0029
2756.00,0.0029
2755.00,0.0029
2754.00,0.0029
2753.00,0.0029
2752.00,0.0028
2751.00,0.0028
2750.00,0.0028
2749.00,0.0028
2748.00,0.0028
2747.00,0.0028
2746.00,0.0028
2745.00,0.0028
2744.00,0.0028
2743.00,0.0028
2742.00,0.0028
2741.00,0.0028
2740.00,0.0028
2739.00,0.0028
2738.00,0.0028
2737.00,0.0028
2736.00,0.0028
2735.00,0.0028
2734.00,0.0028
2733.00,0.0028
2732.00,0.0028
2731.00,0.0028
2730.00,0.0028
2729.00,0.0028
2728.00,0.0028
2727.00,0.0028
2726.00,0.0028
2725.00,0.0028
2724.00,0.0028
2723.00,0.0028
2722.00,0.0028
2721.00,0.0028
2720.00,0.0028
2719.00,0.0028
2718.00,0.0028
2717.00,0.0028
2716.00,0.0028
2715.00,0.0028
2714.00,0.0028
2713.00,0.0028
2712.00,0.0028
2711.00,0.0028
2710.00,0.0028
2709.00,0.0028
2708.00,0.0028
2707.00,0.0028
2706.00,0.0028
2705.00,0.0028
2704.00,0.0028
2703.00,0.0028
2702.00,0.0027
2701.00,0.0027
2700.00,0.0027
2699.00,0.0027
2698.00,0.0027
2697.00,0.0028
2696.00,0.0028
2695.00,0.0028
2694.00,0.0027
2693.00,0.0027
2692.00,0.0027
2691.00,0.0027
2690.00,0.0027
2689.00,0.0027
2688.00,0.0027
2687.00,0.0027
2686.00,0.0027
2685.00,0.0027
2684.00,0.0027
2683.00,0.0027
2682.00,0.0027
2681.00,0.0027
2680.00,0.0027
2679.00,0.0027
2678.00,0.0027
2677.00,0.0027
2676.00,0.0027
2675.00,0.0027
2674.00,0.0027
2673.00,0.0027
2672.00,0.0027
2671.00,0.0027
2670.00,0.0027
2669.00,0.0027
2668.00,0.0027
2667.00,0.0027
2666.00,0.0028
2665.00,0.0028
2664.00,0.0028
2663.00,0.0029
2662.00,0.0029
2661.00,0.0029
2660.00,0.0029
2659.00,0.0029
2658.00,0.0029
2657.00,0.0030
2656.00,0.0030
2655.00,0.0030
2654.00,0.0030
2653.00,0.0030
2652.00,0.0030
2651.00,0.0030
2650.00,0.0030
2649.00,0.0030
2648.00,0.0029
2647.00,0.0029
2646.00,0.0029
2645.00,0.0029
2644.00,0.0029
2643.00,0.0029
2642.00,0.0029
2641.00,0.0029
2640.00,0.0029
2639.00,0.0029
2638.00,0.0029
2637.00,0.0029
2636.00,0.0029
2635.00,0.0030
2634.00,0.0030
2633.00,0.0030
2632.00,0.0030
2631.00,0.0030
2630.00,0.0030
2629.00,0.0030
2628.00,0.0030
2627.00,0.0029
2626.00,0.0029
2625.00,0.0029
2624.00,0.0029
2623.00,0.0029
2622.00,0.0029
2621.00,0.0029
2620.00,0.0029
2619.00,0.0029
2618.00,0.0028
2617.00,0.0028
2616.00,0.0028
2615.00,0.0028
2614.00,0.0028
2613.00,0.0028
2612.00,0.0027
2611.00,0.0027
2610.00,0.0028
2609.00,0.0028
2608.00,0.0028
2607.00,0.0028
2606.00,0.0028
2605.00,0.0028
2604.00,0.0028
2603.00,0.0028
2602.00,0.0028
2601.00,0.0028
2600.00,0.0028
2599.00,0.0028
2598.00,0.0028
2597.00,0.0027
2596.00,0.0027
2595.00,0.0027
2594.00,0.0026
2593.00,0.0026
2592.00,0.0026
2591.00,0.0026
2590.00,0.0026
2589.00,0.0026
2588.00,0.0026
2587.00,0.0026
2586.00,0.0026
2585.00,0.0026
2584.00,0.0026
2583.00,0.0026
2582.00,0.0026
2581.00,0.0026
2580.00,0.0026
2579.00,0.0026
2578.00,0.0026
2577.00,0.0026
2576.00,0.0026
2575.00,0.0026
2574.00,0.0025
2573.00,0.0025
2572.00,0.0025
2571.00,0.0025
2570.00,0.0024
2569.00,0.0024
2568.00,0.0025
2567.00,0.0025
2566.00,0.0025
2565.00,0.0025
2564.00,0.0024
2563.00,0.0024
2562.00,0.0024
2561.00,0.0024
2560.00,0.0025
2559.00,0.0025
2558.00,0.0025
2557.00,0.0024
2556.00,0.0024
2555.00,0.0024
2554.00,0.0024
2553.00,0.0024
2552.00,0.0024
2551.00,0.0023
2550.00,0.0023
2549.00,0.0023
2548.00,0.0023
2547.00,0.0023
2546.00,0.0023
2545.00,0.0024
2544.00,0.0024
2543.00,0.0024
2542.00,0.0024
2541.00,0.0024
2540.00,0.0024
2539.00,0.0024
2538.00,0.0023
2537.00,0.0023
2536.00,0.0023
2535.00,0.0023
2534.00,0.0023
2533.00,0.0024
2532.00,0.0024
2531.00,0.0023
2530.00,0.0023
2529.00,0.0022
2528.00,0.0022
2527.00,0.0022
2526.00,0.0023
2525.00,0.0023
2524.00,0.0023
2523.00,0.0023
2522.00,0.0023
2521.00,0.0023
2520.00,0.0023
2519.00,0.0023
2518.00,0.0023
2517.00,0.0023
2516.00,0.0022
2515.00,0.0022
2514.00,0.0022
2513.00,0.0022
2512.00,0.0022
2511.00,0.0022
2510.00,0.0023
2509.00,0.0023
2508.00,0.0023
2507.00,0.0022
2506.00,0.0022
2505.00,0.0022
2504.00,0.0022
2503.00,0.0022
2502.00,0.0022
2501.00,0.0022
2500.00,0.0022
2499.00,0.0022
2498.00,0.0022
2497.00,0.0022
2496.00,0.0022
2495.00,0.0022
2494.00,0.0022
2493.00,0.0022
2492.00,0.0021
2491.00,0.0021
2490.00,0.0022
2489.00,0.0022
2488.00,0.0022
2487.00,0.0022
2486.00,0.0022
2485.00,0.0022
2484.00,0.0022
2483.00,0.0022
2482.00,0.0022
2481.00,0.0022
2480.00,0.0021
2479.00,0.0021
2478.00,0.0021
2477.00,0.0021
2476.00,0.0021
2475.00,0.0021
2474.00,0.0022
2473.00,0.0022
2472.00,0.0021
2471.00,0.0021
2470.00,0.0021
2469.00,0.0021
2468.00,0.0022
2467.00,0.0022
2466.00,0.0022
2465.00,0.0022
2464.00,0.0022
2463.00,0.0022
2462.00,0.0022
2461.00,0.0022
2460.00,0.0022
2459.00,0.0022
2458.00,0.0021
2457.00,0.0021
2456.00,0.0021
2455.00,0.0020
2454.00,0.0020
2453.00,0.0021
2452.00,0.0021
2451.00,0.0021
2450.00,0.0021
2449.00,0.0021
2448.00,0.0021
2447.00,0.0020
2446.00,0.0020
2445.00,0.0020
2444.00,0.0021
2443.00,0.0021
2442.00,0.0021
2441.00,0.0022
2440.00,0.0021
2439.00,0.0021
2438.00,0.0021
2437.00,0.0020
2436.00,0.0020
2435.00,0.0020
2434.00,0.0020
2433.00,0.0020
2432.00,0.0019
2431.00,0.0019
2430.00,0.0019
2429.00,0.0019
2428.00,0.0019
2427.00,0.0019
2426.00,0.0019
2425.00,0.0018
2424.00,0.0019
2423.00,0.0019
2422.00,0.0019
2421.00,0.0019
2420.00,0.0019
2419.00,0.0019
2418.00,0.0019
2417.00,0.0018
2416.00,0.0018
2415.00,0.0018
2414.00,0.0019
2413.00,0.0019
2412.00,0.0019
2411.00,0.0019
2410.00,0.0019
2409.00,0.0019
2408.00,0.0018
2407.00,0.0018
2406.00,0.0018
2405.00,0.0018
2404.00,0.0018
2403.00,0.0018
2402.00,0.0019
2401.00,0.0018
2400.00,0.0018
2399.00,0.0018
2398.00,0.0018
2397.00,0.0018
2396.00,0.0017
2395.00,0.0017
2394.00,0.0017
2393.00,0.0017
2392.00,0.0017
2391.00,0.0017
2390.00,0.0017
2389.00,0.0017
2388.00,0.0017
2387.00,0.0017
2386.00,0.0017
2385.00,0.0016
2384.00,0.0016
2383.00,0.0015
2382.00,0.0015
2381.00,0.0014
2380.00,0.0014
2379.00,0.0014
2378.00,0.0014
2377.00,0.0014
2376.00,0.0014
2375.00,0.0014
2374.00,0.0014
2373.00,0.0014
2372.00,0.0014
2371.00,0.0014
2370.00,0.0013
2369.00,0.0013
2368.00,0.0013
2367.00,0.0012
2366.00,0.0012
2365.00,0.0013
2364.00,0.0013
2363.00,0.0014
2362.00,0.0014
2361.00,0.0014
2360.00,0.0013
2359.00,0.0013
2358.00,0.0014
2357.00,0.0014
2356.00,0.0015
2355.00,0.0015
2354.00,0.0015
2353.00,0.0015
2352.00,0.0014
2351.00,0.0014
2350.00,0.0014
2349.00,0.0014
2348.00,0.0015
2347.00,0.0014
2346.00,0.0014
2345.00,0.0014
2344.00,0.0014
2343.00,0.0014
2342.00,0.0015
2341.00,0.0015
2340.00,0.0015
2339.00,0.0016
2338.00,0.0016
2337.00,0.0017
2336.00,0.0018
2335.00,0.0018
2334.00,0.0017
2333.00,0.0017
2332.00,0.0017
2331.00,0.0017
2330.00,0.0017
2329.00,0.0018
2328.00,0.0021
2327.00,0.0023
2326.00,0.0025
2325.00,0.0026
2324.00,0.0025
2323.00,0.0023
2322.00,0.0022
2321.00,0.0022
2320.00,0.0021
2319.00,0.0021
2318.00,0.0020
2317.00,0.0019
2316.00,0.0019
2315.00,0.0019
2314.00,0.0019
2313.00,0.0019
2312.00,0.0018
2311.00,0.0018
2310.00,0.0017
2309.00,0.0017
2308.00,0.0018
2307.00,0.0018
2306.00,0.0018
2305.00,0.0018
2304.00,0.0018
2303.00,0.0018
2302.00,0.0019
2301.00,0.0019
2300.00,0.0019
2299.00,0.0019
2298.00,0.0020
2297.00,0.0020
2296.00,0.0020
2295.00,0.0021
2294.00,0.0021
2293.00,0.0021
2292.00,0.0022
2291.00,0.0022
2290.00,0.0022
2289.00,0.0022
2288.00,0.0023
2287.00,0.0023
2286.00,0.0023
2285.00,0.0023
2284.00,0.0023
2283.00,0.0022
2282.00,0.0021
2281.00,0.0021
2280.00,0.0020
2279.00,0.0019
2278.00,0.0019
2277.00,0.0019
2276.00,0.0020
2275.00,0.0020
2274.00,0.0020
2273.00,0.0019
2272.00,0.0019
2271.00,0.0019
2270.00,0.0019
2269.00,0.0018
2268.00,0.0018
2267.00,0.0018
2266.00,0.0019
2265.00,0.0019
2264.00,0.0019
2263.00,0.0019
2262.00,0.0019
2261.00,0.0019
2260.00,0.0019
2259.00,0.0019
2258.00,0.0019
2257.00,0.0018
2256.00,0.0018
2255.00,0.0018
2254.00,0.0019
2253.00,0.0019
2252.00,0.0019
2251.00,0.0019
2250.00,0.0019
2249.00,0.0019
2248.00,0.0019
2247.00,0.0019
2246.00,0.0019
2245.00,0.0019
2244.00,0.0019
2243.00,0.0019
2242.00,0.0019
2241.00,0.0018
2240.00,0.0018
2239.00,0.0018
2238.00,0.0018
2237.00,0.0018
2236.00,0.0017
2235.00,0.0017
2234.00,0.0017
2233.00,0.0016
2232.00,0.0016
2231.00,0.0016
2230.00,0.0015
2229.00,0.0015
2228.00,0.0016
2227.00,0.0016
2226.00,0.0017
2225.00,0.0017
2224.00,0.0018
2223.00,0.0018
2222.00,0.0019
2221.00,0.0019
2220.00,0.0019
2219.00,0.0018
2218.00,0.0017
2217.00,0.0017
2216.00,0.0017
2215.00,0.0017
2214.00,0.0017
2213.00,0.0017
2212.00,0.0016
2211.00,0.0016
2210.00,0.0016
2209.00,0.0016
2208.00,0.0016
2207.00,0.0016
2206.00,0.0016
2205.00,0.0016
2204.00,0.0016
2203.00,0.0016
2202.00,0.0016
2201.00,0.0016
2200.00,0.0017
2199.00,0.0018
2198.00,0.0020
2197.00,0.0020
2196.00,0.0019
2195.00,0.0019
2194.00,0.0019
2193.00,0.0019
2192.00,0.0019
2191.00,0.0020
2190.00,0.0020
2189.00,0.0020
2188.00,0.0021
2187.00,0.0021
2186.00,0.0022
2185.00,0.0021
2184.00,0.0020
2183.00,0.0017
2182.00,0.0015
2181.00,0.0013
2180.00,0.0011
2179.00,0.0010
2178.00,0.0010
2177.00,0.0011
2176.00,0.0011
2175.00,0.0012
2174.00,0.0014
2173.00,0.0015
2172.00,0.0016
2171.00,0.0018
2170.00,0.0020
2169.00,0.0022
2168.00,0.0023
2167.00,0.0023
2166.00,0.0024
2165.00,0.0025
2164.00,0.0026
2163.00,0.0025
2162.00,0.0021
2161.00,0.0013
2160.00,0.0004
2159.00,-0.0005
2158.00,-0.0008
2157.00,-0.0007
2156.00,-0.0004
2155.00,-0.0001
2154.00,0.0002
2153.00,0.0003
2152.00,0.0003
2151.00,0.0003
2150.00,0.0003
2149.00,0.0002
2148.00,0.0002
2147.00,0.0001
2146.00,0.0001
2145.00,0.0001
2144.00,0.0003
2143.00,0.0005
2142.00,0.0007
2141.00,0.0008
2140.00,0.0008
2139.00,0.0007
2138.00,0.0005
2137.00,0.0003
2136.00,0.0002
2135.00,0.0001
2134.00,0.0002
2133.00,0.0003
2132.00,0.0004
2131.00,0.0004
2130.00,0.0005
2129.00,0.0005
2128.00,0.0005
2127.00,0.0006
2126.00,0.0006
2125.00,0.0007
2124.00,0.0008
2123.00,0.0010
2122.00,0.0011
2121.00,0.0011
2120.00,0.0011
2119.00,0.0011
2118.00,0.0012
2117.00,0.0012
2116.00,0.0013
2115.00,0.0012
2114.00,0.0012
2113.00,0.0012
2112.00,0.0012
2111.00,0.0012
2110.00,0.0013
2109.00,0.0014
2108.00,0.0015
2107.00,0.0015
2106.00,0.0015
2105.00,0.0015
2104.00,0.0015
2103.00,0.0015
2102.00,0.0015
2101.00,0.0015
2100.00,0.0014
2099.00,0.0012
2098.00,0.0011
2097.00,0.0011
2096.00,0.0011
2095.00,0.0011
2094.00,0.0011
2093.00,0.0012
2092.00,0.0012
2091.00,0.0012
2090.00,0.0012
2089.00,0.0013
2088.00,0.0014
2087.00,0.0014
2086.00,0.0014
2085.00,0.0014
2084.00,0.0015
2083.00,0.0015
2082.00,0.0016
2081.00,0.0016
2080.00,0.0016
2079.00,0.0015
2078.00,0.0014
2077.00,0.0014
2076.00,0.0014
2075.00,0.0014
2074.00,0.0014
2073.00,0.0014
2072.00,0.0013
2071.00,0.0013
2070.00,0.0013
2069.00,0.0014
2068.00,0.0015
2067.00,0.0015
2066.00,0.0015
2065.00,0.0015
2064.00,0.0015
2063.00,0.0014
2062.00,0.0013
2061.00,0.0012
2060.00,0.0012
2059.00,0.0011
2058.00,0.0012
2057.00,0.0012
2056.00,0.0012
2055.00,0.0012
2054.00,0.0014
2053.00,0.0017
2052.00,0.0019
2051.00,0.0020
2050.00,0.0019
2049.00,0.0017
2048.00,0.0016
2047.00,0.0016
2046.00,0.0016
2045.00,0.0016
2044.00,0.0015
2043.00,0.0014
2042.00,0.0014
2041.00,0.0013
2040.00,0.0014
2039.00,0.0015
2038.00,0.0016
2037.00,0.0016
2036.00,0.0015
2035.00,0.0012
2034.00,0.0009
2033.00,0.0007
2032.00,0.0007
2031.00,0.0007
2030.00,0.0007
2029.00,0.0008
2028.00,0.0008
2027.00,0.0009
2026.00,0.0009
2025.00,0.0009
2024.00,0.0009
2023.00,0.0009
2022.00,0.0010
2021.00,0.0009
2020.00,0.0009
2019.00,0.0010
2018.00,0.0011
2017.00,0.0012
2016.00,0.0014
2015.00,0.0014
2014.00,0.0014
2013.00,0.0014
2012.00,0.0013
2011.00,0.0012
2010.00,0.0011
2009.00,0.0010
2008.00,0.0008
2007.00,0.0007
2006.00,0.0007
2005.00,0.0007
2004.00,0.0006
2003.00,0.0005
2002.00,0.0005
2001.00,0.0006
2000.00,0.0007
1999.00,0.0008
1998.00,0.0009
1997.00,0.0010
1996.00,0.0012
1995.00,0.0013
1994.00,0.0014
1993.00,0.0014
1992.00,0.0015
1991.00,0.0015
1990.00,0.0014
1989.00,0.0014
1988.00,0.0014
1987.00,0.0015
1986.00,0.0015
1985.00,0.0016
1984.00,0.0016
1983.00,0.0018
1982.00,0.0019
1981.00,0.0019
1980.00,0.0018
1979.00,0.0016
1978.00,0.0013
1977.00,0.0010
1976.00,0.0008
1975.00,0.0008
1974.00,0.0009
1973.00,0.0009
1972.00,0.0009
1971.00,0.0009
1970.00,0.0009
1969.00,0.0009
1968.00,0.0009
1967.00,0.0009
1966.00,0.0009
1965.00,0.0010
1964.00,0.0011
1963.00,0.0012
1962.00,0.0012
1961.00,0.0012
1960.00,0.0012
1959.00,0.0012
1958.00,0.0013
1957.00,0.0013
1956.00,0.0014
1955.00,0.0014
1954.00,0.0014
1953.00,0.0014
1952.00,0.0015
1951.00,0.0015
1950.00,0.0015
1949.00,0.0015
1948.00,0.0015
1947.00,0.0014
1946.00,0.0014
1945.00,0.0014
1944.00,0.0014
1943.00,0.0014
1942.00,0.0015
1941.00,0.0015
1940.00,0.0016
1939.00,0.0017
1938.00,0.0016
1937.00,0.0015
1936.00,0.0015
1935.00,0.0014
1934.00,0.0014
1933.00,0.0014
1932.00,0.0013
1931.00,0.0012
1930.00,0.0011
1929.00,0.0010
1928.00,0.0010
1927.00,0.0010
1926.00,0.0010
1925.00,0.0010
1924.00,0.0010
1923.00,0.0011
1922.00,0.0012
1921.00,0.0012
1920.00,0.0012
1919.00,0.0013
1918.00,0.0013
1917.00,0.0013
1916.00,0.0013
1915.00,0.0012
1914.00,0.0011
1913.00,0.0011
1912.00,0.0012
1911.00,0.0012
1910.00,0.0013
1909.00,0.0012
1908.00,0.0012
1907.00,0.0011
1906.00,0.0011
1905.00,0.0011
1904.00,0.0012
1903.00,0.0012
1902.00,0.0012
1901.00,0.0011
1900.00,0.0011
1899.00,0.0012
1898.00,0.0012
1897.00,0.0013
1896.00,0.0014
1895.00,0.0014
1894.00,0.0015
1893.00,0.0015
1892.00,0.0015
1891.00,0.0015
1890.00,0.0016
1889.00,0.0016
1888.00,0.0016
1887.00,0.0016
1886.00,0.0016
1885.00,0.0017
1884.00,0.0017
1883.00,0.0018
1882.00,0.0018
1881.00,0.0017
1880.00,0.0017
1879.00,0.0017
1878.00,0.0017
1877.00,0.0017
1876.00,0.0017
1875.00,0.0017
1874.00,0.0018
1873.00,0.0018
1872.00,0.0018
1871.00,0.0018
1870.00,0.0018
1869.00,0.0018
1868.00,0.0018
1867.00,0.0018
1866.00,0.0018
1865.00,0.0018
1864.00,0.0017
1863.00,0.0017
1862.00,0.0017
1861.00,0.0016
1860.00,0.0016
1859.00,0.0015
1858.00,0.0015
1857.00,0.0015
1856.00,0.0014
1855.00,0.0014
1854.00,0.0014
1853.00,0.0014
1852.00,0.0014
1851.00,0.0014
1850.00,0.0014
1849.00,0.0014
1848.00,0.0013
1847.00,0.0013
1846.00,0.0013
1845.00,0.0014
1844.00,0.0014
1843.00,0.0014
1842.00,0.0014
1841.00,0.0014
1840.00,0.0014
1839.00,0.0013
1838.00,0.0013
1837.00,0.0013
1836.00,0.0013
1835.00,0.0014
1834.00,0.0014
1833.00,0.0014
1832.00,0.0014
1831.00,0.0014
1830.00,0.0014
1829.00,0.0015
1828.00,0.0015
1827.00,0.0015
1826.00,0.0016
1825.00,0.0016
1824.00,0.0016
1823.00,0.0016
1822.00,0.0016
1821.00,0.0016
1820.00,0.0015
1819.00,0.0015
1818.00,0.0015
1817.00,0.0015
1816.00,0.0016
1815.00,0.0016
1814.00,0.0017
1813.00,0.0018
1812.00,0.0018
1811.00,0.0019
1810.00,0.0019
1809.00,0.0019
1808.00,0.0020
1807.00,0.0020
1806.00,0.0021
1805.00,0.0021
1804.00,0.0021
1803.00,0.0021
1802.00,0.0021
1801.00,0.0021
1800.00,0.0021
1799.00,0.0021
1798.00,0.0021
1797.00,0.0021
1796.00,0.0020
1795.00,0.0020
1794.00,0.0020
1793.00,0.0020
1792.00,0.0020
1791.00,0.0020
1790.00,0.0019
1789.00,0.0019
1788.00,0.0018
1787.00,0.0018
1786.00,0.0018
1785.00,0.0018
1784.00,0.0018
1783.00,0.0018
1782.00,0.0018
1781.00,0.0018
1780.00,0.0018
1779.00,0.0018
1778.00,0.0018
1777.00,0.0018
1776.00,0.0018
1775.00,0.0018
1774.00,0.0018
1773.00,0.0018
1772.00,0.0019
1771.00,0.0020
1770.00,0.0020
1769.00,0.0020
1768.00,0.0020
1767.00,0.0020
1766.00,0.0020
1765.00,0.0021
1764.00,0.0021
1763.00,0.0021
1762.00,0.0022
1761.00,0.0023
1760.00,0.0023
1759.00,0.0024
1758.00,0.0025
1757.00,0.0026
1756.00,0.0026
1755.00,0.0027
1754.00,0.0028
1753.00,0.0030
1752.00,0.0032
1751.00,0.0033
1750.00,0.0034
1749.00,0.0036
1748.00,0.0037
1747.00,0.0038
1746.00,0.0039
1745.00,0.0040
1744.00,0.0040
1743.00,0.0041
1742.00,0.0042
1741.00,0.0042
1740.00,0.0043
1739.00,0.0043
1738.00,0.0043
1737.00,0.0043
1736.00,0.0043
1735.00,0.0043
1734.00,0.0042
1733.00,0.0041
1732.00,0.0040
1731.00,0.0039
1730.00,0.0038
1729.00,0.0038
1728.00,0.0037
1727.00,0.0036
1726.00,0.0035
1725.00,0.0035
1724.00,0.0034
1723.00,0.0033
1722.00,0.0033
1721.00,0.0032
1720.00,0.0032
1719.00,0.0032
1718.00,0.0032
1717.00,0.0031
1716.00,0.0031
1715.00,0.0030
1714.00,0.0029
1713.00,0.0029
1712.00,0.0028
1711.00,0.0028
1710.00,0.0028
1709.00,0.0028
1708.00,0.0028
1707.00,0.0027
1706.00,0.0027
1705.00,0.0027
1704.00,0.0027
1703.00,0.0026
1702.00,0.0027
1701.00,0.0027
1700.00,0.0027
1699.00,0.0027
1698.00,0.0028
1697.00,0.0028
1696.00,0.0028
1695.00,0.0028
1694.00,0.0028
1693.00,0.0028
1692.00,0.0028
1691.00,0.0028
1690.00,0.0029
1689.00,0.0029
1688.00,0.0029
1687.00,0.0030
1686.00,0.0030
1685.00,0.0031
1684.00,0.0031
1683.00,0.0032
1682.00,0.0032
1681.00,0.0032
1680.00,0.0032
1679.00,0.0032
1678.00,0.0032
1677.00,0.0032
1676.00,0.0032
1675.00,0.0032
1674.00,0.0033
1673.00,0.0033
1672.00,0.0033
1671.00,0.0033
1670.00,0.0033
1669.00,0.0033
1668.00,0.0033
1667.00,0.0033
1666.00,0.0033
1665.00,0.0033
1664.00,0.0033
1663.00,0.0033
1662.00,0.0033
1661.00,0.0032
1660.00,0.0032
1659.00,0.0032
1658.00,0.0032
1657.00,0.0032
1656.00,0.0032
1655.00,0.0032
1654.00,0.0031
1653.00,0.0031
1652.00,0.0031
1651.00,0.0031
1650.00,0.0031
1649.00,0.0031
1648.00,0.0031
1647.00,0.0030
1646.00,0.0030
1645.00,0.0029
1644.00,0.0029
1643.00,0.0028
1642.00,0.0028
1641.00,0.0028
1640.00,0.0028
1639.00,0.0028
1638.00,0.0028
1637.00,0.0028
1636.00,0.0027
1635.00,0.0027
1634.00,0.0027
1633.00,0.0026
1632.00,0.0026
1631.00,0.0026
1630.00,0.0026
1629.00,0.0026
1628.00,0.0026
1627.00,0.0027
1626.00,0.0027
1625.00,0.0027
1624.00,0.0026
1623.00,0.0026
1622.00,0.0026
1621.00,0.0026
1620.00,0.0026
1619.00,0.0026
1618.00,0.0026
1617.00,0.0026
1616.00,0.0026
1615.00,0.0027
1614.00,0.0028
1613.00,0.0028
1612.00,0.0029
1611.00,0.0030
1610.00,0.0032
1609.00,0.0035
1608.00,0.0039
1607.00,0.0044
1606.00,0.0050
1605.00,0.0056
1604.00,0.0062
1603.00,0.0068
1602.00,0.0072
1601.00,0.0074
1600.00,0.0074
1599.00,0.0070
1598.00,0.0065
1597.00,0.0059
1596.00,0.0053
1595.00,0.0048
1594.00,0.0044
1593.00,0.0040
1592.00,0.0038
1591.00,0.0036
1590.00,0.0035
1589.00,0.0034
1588.00,0.0034
1587.00,0.0034
1586.00,0.0036
1585.00,0.0038
1584.00,0.0040
1583.00,0.0041
1582.00,0.0041
1581.00,0.0039
1580.00,0.0036
1579.00,0.0033
1578.00,0.0031
1577.00,0.0029
1576.00,0.0028
1575.00,0.0027
1574.00,0.0027
1573.00,0.0026
1572.00,0.0025
1571.00,0.0025
1570.00,0.0024
1569.00,0.0024
1568.00,0.0024
1567.00,0.0024
1566.00,0.0024
1565.00,0.0024
1564.00,0.0024
1563.00,0.0024
1562.00,0.0024
1561.00,0.0024
1560.00,0.0024
1559.00,0.0024
1558.00,0.0024
1557.00,0.0024
1556.00,0.0025
1555.00,0.0025
1554.00,0.0025
1553.00,0.0026
1552.00,0.0026
1551.00,0.0026
1550.00,0.0026
1549.00,0.0026
1548.00,0.0027
1547.00,0.0027
1546.00,0.0027
1545.00,0.0027
1544.00,0.0027
1543.00,0.0027
1542.00,0.0027
1541.00,0.0027
1540.00,0.0027
1539.00,0.0027
1538.00,0.0027
1537.00,0.0026
1536.00,0.0025
1535.00,0.0025
1534.00,0.0025
1533.00,0.0024
1532.00,0.0024
1531.00,0.0023
1530.00,0.0023
1529.00,0.0023
1528.00,0.0023
1527.00,0.0023
1526.00,0.0023
1525.00,0.0023
1524.00,0.0023
1523.00,0.0023
1522.00,0.0022
1521.00,0.0022
1520.00,0.0022
1519.00,0.0022
1518.00,0.0022
1517.00,0.0022
1516.00,0.0022
1515.00,0.0023
1514.00,0.0023
1513.00,0.0023
1512.00,0.0023
1511.00,0.0023
1510.00,0.0024
1509.00,0.0024
1508.00,0.0024
1507.00,0.0025
1506.00,0.0025
1505.00,0.0026
1504.00,0.0027
1503.00,0.0029
1502.00,0.0031
1501.00,0.0034
1500.00,0.0038
1499.00,0.0045
1498.00,0.0056
1497.00,0.0072
1496.00,0.0094
1495.00,0.0118
1494.00,0.0140
1493.00,0.0156
1492.00,0.0161
1491.00,0.0153
1490.00,0.0133
1489.00,0.0110
1488.00,0.0090
1487.00,0.0074
1486.00,0.0063
1485.00,0.0055
1484.00,0.0048
1483.00,0.0043
1482.00,0.0039
1481.00,0.0037
1480.00,0.0035
1479.00,0.0033
1478.00,0.0032
1477.00,0.0032
1476.00,0.0032
1475.00,0.0032
1474.00,0.0032
1473.00,0.0032
1472.00,0.0032
1471.00,0.0033
1470.00,0.0033
1469.00,0.0034
1468.00,0.0035
1467.00,0.0036
1466.00,0.0036
1465.00,0.0037
1464.00,0.0038
1463.00,0.0039
1462.00,0.0040
1461.00,0.0043
1460.00,0.0046
1459.00,0.0051
1458.00,0.0059
1457.00,0.0074
1456.00,0.0093
1455.00,0.0115
1454.00,0.0136
1453.00,0.0153
1452.00,0.0163
1451.00,0.0165
1450.00,0.0159
1449.00,0.0149
1448.00,0.0137
1447.00,0.0126
1446.00,0.0117
1445.00,0.0109
1444.00,0.0102
1443.00,0.0096
1442.00,0.0089
1441.00,0.0083
1440.00,0.0078
1439.00,0.0074
1438.00,0.0070
1437.00,0.0065
1436.00,0.0059
1435.00,0.0054
1434.00,0.0050
1433.00,0.0047
1432.00,0.0044
1431.00,0.0042
1430.00,0.0040
1429.00,0.0038
1428.00,0.0036
1427.00,0.0035
1426.00,0.0035
1425.00,0.0034
1424.00,0.0033
1423.00,0.0033
1422.00,0.0033
1421.00,0.0033
1420.00,0.0033
1419.00,0.0033
1418.00,0.0032
1417.00,0.0032
1416.00,0.0031
1415.00,0.0030
1414.00,0.0030
1413.00,0.0030
1412.00,0.0030
1411.00,0.0029
1410.00,0.0029
1409.00,0.0029
1408.00,0.0029
1407.00,0.0029
1406.00,0.0029
1405.00,0.0029
1404.00,0.0028
1403.00,0.0028
1402.00,0.0028
1401.00,0.0029
1400.00,0.0029
1399.00,0.0029
1398.00,0.0030
1397.00,0.0030
1396.00,0.0030
1395.00,0.0031
1394.00,0.0031
1393.00,0.0032
1392.00,0.0032
1391.00,0.0033
1390.00,0.0034
1389.00,0.0035
1388.00,0.0037
1387.00,0.0038
1386.00,0.0039
1385.00,0.0040
1384.00,0.0041
1383.00,0.0042
1382.00,0.0043
1381.00,0.0044
1380.00,0.0045
1379.00,0.0046
1378.00,0.0047
1377.00,0.0048
1376.00,0.0049
1375.00,0.0050
1374.00,0.0050
1373.00,0.0050
1372.00,0.0050
1371.00,0.0050
1370.00,0.0050
1369.00,0.0050
1368.00,0.0049
1367.00,0.0049
1366.00,0.0048
1365.00,0.0048
1364.00,0.0048
1363.00,0.0048
1362.00,0.0047
1361.00,0.0047
1360.00,0.0046
1359.00,0.0046
1358.00,0.0045
1357.00,0.0045
1356.00,0.0045
1355.00,0.0044
1354.00,0.0044
1353.00,0.0044
1352.00,0.0043
1351.00,0.0043
1350.00,0.0043
1349.00,0.0043
1348.00,0.0043
1347.00,0.0043
1346.00,0.0043
1345.00,0.0042
1344.00,0.0041
1343.00,0.0041
1342.00,0.0041
1341.00,0.0040
1340.00,0.0040
1339.00,0.0040
1338.00,0.0039
1337.00,0.0039
1336.00,0.0039
1335.00,0.0040
1334.00,0.0040
1333.00,0.0041
1332.00,0.0042
1331.00,0.0043
1330.00,0.0043
1329.00,0.0044
1328.00,0.0044
1327.00,0.0044
1326.00,0.0044
1325.00,0.0043
1324.00,0.0043
1323.00,0.0042
1322.00,0.0042
1321.00,0.0042
1320.00,0.0042
1319.00,0.0042
1318.00,0.0042
1317.00,0.0042
1316.00,0.0042
1315.00,0.0043
1314.00,0.0043
1313.00,0.0043
1312.00,0.0043
1311.00,0.0042
1310.00,0.0042
1309.00,0.0042
1308.00,0.0042
1307.00,0.0041
1306.00,0.0041
1305.00,0.0041
1304.00,0.0040
1303.00,0.0040
1302.00,0.0040
1301.00,0.0039
1300.00,0.0039
1299.00,0.0038
1298.00,0.0038
1297.00,0.0038
1296.00,0.0039
1295.00,0.0039
1294.00,0.0039
1293.00,0.0039
1292.00,0.0039
1291.00,0.0039
1290.00,0.0039
1289.00,0.0039
1288.00,0.0038
1287.00,0.0038
1286.00,0.0038
1285.00,0.0038
1284.00,0.0037
1283.00,0.0037
1282.00,0.0037
1281.00,0.0038
1280.00,0.0037
1279.00,0.0037
1278.00,0.0037
1277.00,0.0036
1276.00,0.0036
1275.00,0.0036
1274.00,0.0035
1273.00,0.0035
1272.00,0.0035
1271.00,0.0034
1270.00,0.0034
1269.00,0.0034
1268.00,0.0033
1267.00,0.0033
1266.00,0.0033
1265.00,0.0033
1264.00,0.0032
1263.00,0.0032
1262.00,0.0032
1261.00,0.0032
1260.00,0.0032
1259.00,0.0031
1258.00,0.0032
1257.00,0.0032
1256.00,0.0032
1255.00,0.0032
1254.00,0.0032
1253.00,0.0033
1252.00,0.0033
1251.00,0.0033
1250.00,0.0033
1249.00,0.0033
1248.00,0.0033
1247.00,0.0033
1246.00,0.0033
1245.00,0.0033
1244.00,0.0033
1243.00,0.0033
1242.00,0.0033
1241.00,0.0032
1240.00,0.0032
1239.00,0.0032
1238.00,0.0032
1237.00,0.0033
1236.00,0.0033
1235.00,0.0033
1234.00,0.0033
1233.00,0.0033
1232.00,0.0033
1231.00,0.0033
1230.00,0.0033
1229.00,0.0033
1228.00,0.0033
1227.00,0.0032
1226.00,0.0032
1225.00,0.0032
1224.00,0.0032
1223.00,0.0033
1222.00,0.0033
1221.00,0.0033
1220.00,0.0033
1219.00,0.0032
1218.00,0.0032
1217.00,0.0032
1216.00,0.0032
1215.00,0.0032
1214.00,0.0033
1213.00,0.0033
1212.00,0.0033
1211.00,0.0034
1210.00,0.0034
1209.00,0.0035
1208.00,0.0035
1207.00,0.0035
1206.00,0.0036
1205.00,0.0037
1204.00,0.0037
1203.00,0.0038
1202.00,0.0039
1201.00,0.0039
1200.00,0.0040
1199.00,0.0041
1198.00,0.0042
1197.00,0.0042
1196.00,0.0043
1195.00,0.0043
1194.00,0.0043
1193.00,0.0043
1192.00,0.0043
1191.00,0.0043
1190.00,0.0044
1189.00,0.0044
1188.00,0.0044
1187.00,0.0045
1186.00,0.0047
1185.00,0.0048
1184.00,0.0050
1183.00,0.0052
1182.00,0.0053
1181.00,0.0054
1180.00,0.0054
1179.00,0.0053
1178.00,0.0051
1177.00,0.0049
1176.00,0.0047
1175.00,0.0045
1174.00,0.0043
1173.00,0.0042
1172.00,0.0042
1171.00,0.0041
1170.00,0.0040
1169.00,0.0040
1168.00,0.0040
1167.00,0.0039
1166.00,0.0039
1165.00,0.0039
1164.00,0.0040
1163.00,0.0040
1162.00,0.0041
1161.00,0.0042
1160.00,0.0043
1159.00,0.0045
1158.00,0.0048
1157.00,0.0050
1156.00,0.0052
1155.00,0.0053
1154.00,0.0053
1153.00,0.0052
1152.00,0.0050
1151.00,0.0047
1150.00,0.0044
1149.00,0.0042
1148.00,0.0039
1147.00,0.0037
1146.00,0.0036
1145.00,0.0034
1144.00,0.0033
1143.00,0.0032
1142.00,0.0031
1141.00,0.0031
1140.00,0.0030
1139.00,0.0030
1138.00,0.0029
1137.00,0.0029
1136.00,0.0029
1135.00,0.0029
1134.00,0.0029
1133.00,0.0028
1132.00,0.0028
1131.00,0.0028
1130.00,0.0028
1129.00,0.0028
1128.00,0.0028
1127.00,0.0028
1126.00,0.0029
1125.00,0.0029
1124.00,0.0028
1123.00,0.0028
1122.00,0.0029
1121.00,0.0029
1120.00,0.0030
1119.00,0.0031
1118.00,0.0032
1117.00,0.0033
1116.00,0.0034
1115.00,0.0034
1114.00,0.0035
1113.00,0.0035
1112.00,0.0035
1111.00,0.0035
1110.00,0.0036
1109.00,0.0036
1108.00,0.0036
1107.00,0.0035
1106.00,0.0035
1105.00,0.0035
1104.00,0.0035
1103.00,0.0035
1102.00,0.0035
1101.00,0.0036
1100.00,0.0036
1099.00,0.0036
1098.00,0.0036
1097.00,0.0036
1096.00,0.0037
1095.00,0.0037
1094.00,0.0037
1093.00,0.0038
1092.00,0.0038
1091.00,0.0038
1090.00,0.0039
1089.00,0.0039
1088.00,0.0039
1087.00,0.0040
1086.00,0.0041
1085.00,0.0042
1084.00,0.0043
1083.00,0.0043
1082.00,0.0044
1081.00,0.0045
1080.00,0.0046
1079.00,0.0047
1078.00,0.0048
1077.00,0.0050
1076.00,0.0052
1075.00,0.0054
1074.00,0.0056
1073.00,0.0059
1072.00,0.0060
1071.00,0.0061
1070.00,0.0062
1069.00,0.0062
1068.00,0.0062
1067.00,0.0062
1066.00,0.0061
1065.00,0.0060
1064.00,0.0058
1063.00,0.0055
1062.00,0.0053
1061.00,0.0051
1060.00,0.0049
1059.00,0.0048
1058.00,0.0047
1057.00,0.0046
1056.00,0.0044
1055.00,0.0044
1054.00,0.0043
1053.00,0.0043
1052.00,0.0042
1051.00,0.0042
1050.00,0.0041
1049.00,0.0041
1048.00,0.0040
1047.00,0.0039
1046.00,0.0038
1045.00,0.0038
1044.00,0.0038
1043.00,0.0038
1042.00,0.0038
1041.00,0.0039
1040.00,0.0039
1039.00,0.0040
1038.00,0.0042
1037.00,0.0045
1036.00,0.0049
1035.00,0.0055
1034.00,0.0063
1033.00,0.0071
1032.00,0.0080
1031.00,0.0088
1030.00,0.0094
1029.00,0.0099
1028.00,0.0101
1027.00,0.0100
1026.00,0.0096
1025.00,0.0091
1024.00,0.0084
1023.00,0.0078
1022.00,0.0072
1021.00,0.0068
1020.00,0.0064
1019.00,0.0061
1018.00,0.0059
1017.00,0.0057
1016.00,0.0055
1015.00,0.0053
1014.00,0.0051
1013.00,0.0050
1012.00,0.0048
1011.00,0.0047
1010.00,0.0046
1009.00,0.0045
1008.00,0.0045
1007.00,0.0045
1006.00,0.0047
1005.00,0.0048
1004.00,0.0049
1003.00,0.0048
1002.00,0.0048
1001.00,0.0046
1000.00,0.0044
999.00,0.0042
998.00,0.0040
997.00,0.0039
996.00,0.0037
995.00,0.0037
994.00,0.0036
993.00,0.0036
992.00,0.0036
991.00,0.0036
990.00,0.0037
989.00,0.0037
988.00,0.0038
987.00,0.0039
986.00,0.0040
985.00,0.0041
984.00,0.0042
983.00,0.0042
982.00,0.0043
981.00,0.0044
980.00,0.0044
979.00,0.0044
978.00,0.0044
977.00,0.0044
976.00,0.0043
975.00,0.0042
974.00,0.0042
973.00,0.0042
972.00,0.0042
971.00,0.0042
970.00,0.0042
969.00,0.0043
968.00,0.0044
967.00,0.0046
966.00,0.0047
965.00,0.0048
964.00,0.0048
963.00,0.0047
962.00,0.0046
961.00,0.0045
960.00,0.0043
959.00,0.0041
958.00,0.0040
957.00,0.0038
956.00,0.0037
955.00,0.0036
954.00,0.0036
953.00,0.0036
952.00,0.0036
951.00,0.0036
950.00,0.0036
949.00,0.0037
948.00,0.0037
947.00,0.0038
946.00,0.0038
945.00,0.0038
944.00,0.0039
943.00,0.0039
942.00,0.0039
941.00,0.0038
940.00,0.0038
939.00,0.0037
938.00,0.0036
937.00,0.0035
936.00,0.0034
935.00,0.0033
934.00,0.0032
933.00,0.0031
932.00,0.0030
931.00,0.0029
930.00,0.0029
929.00,0.0028
928.00,0.0028
927.00,0.0028
926.00,0.0029
925.00,0.0029
924.00,0.0030
923.00,0.0030
922.00,0.0031
921.00,0.0032
920.00,0.0033
919.00,0.0034
918.00,0.0036
917.00,0.0038
916.00,0.0040
915.00,0.0043
914.00,0.0047
913.00,0.0051
912.00,0.0055
911.00,0.0059
910.00,0.0064
909.00,0.0068
908.00,0.0071
907.00,0.0073
906.00,0.0073
905.00,0.0072
904.00,0.0070
903.00,0.0066
902.00,0.0062
901.00,0.0057
900.00,0.0051
899.00,0.0046
898.00,0.0042
897.00,0.0039
896.00,0.0036
895.00,0.0034
894.00,0.0032
893.00,0.0031
892.00,0.0030
891.00,0.0029
890.00,0.0029
889.00,0.0028
888.00,0.0027
887.00,0.0027
886.00,0.0026
885.00,0.0026
884.00,0.0026
883.00,0.0025
882.00,0.0025
881.00,0.0024
880.00,0.0023
879.00,0.0023
878.00,0.0022
877.00,0.0022
876.00,0.0022
875.00,0.0022
874.00,0.0022
873.00,0.0023
872.00,0.0022
871.00,0.0022
870.00,0.0022
869.00,0.0022
868.00,0.0022
867.00,0.0022
866.00,0.0022
865.00,0.0022
864.00,0.0022
863.00,0.0022
862.00,0.0022
861.00,0.0022
860.00,0.0022
859.00,0.0022
858.00,0.0022
857.00,0.0023
856.00,0.0023
855.00,0.0023
854.00,0.0024
853.00,0.0025
852.00,0.0026
851.00,0.0028
850.00,0.0030
849.00,0.0032
848.00,0.0034
847.00,0.0036
846.00,0.0038
845.00,0.0040
844.00,0.0041
843.00,0.0042
842.00,0.0043
841.00,0.0043
840.00,0.0043
839.00,0.0041
838.00,0.0039
837.00,0.0037
836.00,0.0034
835.00,0.0031
834.00,0.0030
833.00,0.0028
832.00,0.0027
831.00,0.0025
830.00,0.0025
829.00,0.0025
828.00,0.0024
827.00,0.0023
826.00,0.0023
825.00,0.0023
824.00,0.0023
823.00,0.0023
822.00,0.0023
821.00,0.0023
820.00,0.0022
819.00,0.0022
818.00,0.0023
817.00,0.0023
816.00,0.0023
815.00,0.0022
814.00,0.0022
813.00,0.0023
812.00,0.0023
811.00,0.0024
810.00,0.0025
809.00,0.0026
808.00,0.0026
807.00,0.0025
806.00,0.0025
805.00,0.0025
804.00,0.0025
803.00,0.0025
802.00,0.0026
801.00,0.0027
800.00,0.0028
799.00,0.0028
798.00,0.0029
797.00,0.0030
796.00,0.0031
795.00,0.0032
794.00,0.0033
793.00,0.0035
792.00,0.0037
791.00,0.0038
790.00,0.0040
789.00,0.0043
788.00,0.0044
787.00,0.0047
786.00,0.0049
785.00,0.0052
784.00,0.0055
783.00,0.0058
782.00,0.0062
781.00,0.0066
780.00,0.0070
779.00,0.0075
778.00,0.0081
777.00,0.0087
776.00,0.0095
775.00,0.0102
774.00,0.0111
773.00,0.0120
772.00,0.0130
771.00,0.0140
770.00,0.0152
769.00,0.0164
768.00,0.0176
767.00,0.0187
766.00,0.0199
765.00,0.0211
764.00,0.0222
763.00,0.0233
762.00,0.0244
761.00,0.0256
760.00,0.0267
759.00,0.0278
758.00,0.0288
757.00,0.0296
756.00,0.0301
755.00,0.0303
754.00,0.0303
753.00,0.0303
752.00,0.0302
751.00,0.0301
750.00,0.0301
749.00,0.0301
748.00,0.0300
747.00,0.0295
746.00,0.0288
745.00,0.0276
744.00,0.0260
743.00,0.0242
742.00,0.0222
741.00,0.0202
740.00,0.0183
739.00,0.0166
738.00,0.0151
737.00,0.0137
736.00,0.0123
735.00,0.0110
734.00,0.0098
733.00,0.0086
732.00,0.0076
731.00,0.0067
730.00,0.0061
729.00,0.0056
728.00,0.0052
727.00,0.0050
726.00,0.0049
725.00,0.0048
724.00,0.0047
723.00,0.0046
722.00,0.0045
721.00,0.0045
720.00,0.0045
719.00,0.0045
718.00,0.0046
717.00,0.0048
716.00,0.0050
715.00,0.0054
714.00,0.0059
713.00,0.0065
712.00,0.0074
711.00,0.0087
710.00,0.0105
709.00,0.0129
708.00,0.0160
707.00,0.0198
706.00,0.0244
705.00,0.0298
704.00,0.0358
703.00,0.0424
702.00,0.0495
701.00,0.0569
700.00,0.0642
699.00,0.0714
698.00,0.0784
697.00,0.0847
696.00,0.0896
695.00,0.0924
694.00,0.0920
693.00,0.0880
692.00,0.0810
691.00,0.0723
690.00,0.0634
689.00,0.0553
688.00,0.0483
687.00,0.0426
686.00,0.0381
685.00,0.0344
684.00,0.0312
683.00,0.0286
682.00,0.0264
681.00,0.0245
680.00,0.0229
679.00,0.0214
678.00,0.0203
677.00,0.0192
676.00,0.0183
675.00,0.0175
674.00,0.0169
673.00,0.0164
672.00,0.0158
671.00,0.0154
670.00,0.0150
669.00,0.0145
668.00,0.0139
667.00,0.0134
666.00,0.0129
665.00,0.0124
664.00,0.0119
663.00,0.0114
662.00,0.0110
661.00,0.0107
660.00,0.0103
659.00,0.0098
658.00,0.0094
657.00,0.0090
656.00,0.0087
655.00,0.0084
654.00,0.0081
653.00,0.0079
652.00,0.0075
651.00,0.0072
650.00,0.0070
649.00,0.0068
648.00,0.0066
647.00,0.0064
646.00,0.0063
645.00,0.0062
644.00,0.0062
643.00,0.0061
642.00,0.0062
641.00,0.0062
640.00,0.0062
639.00,0.0062
638.00,0.0064
637.00,0.0065
636.00,0.0067
635.00,0.0068
634.00,0.0069
633.00,0.0071
632.00,0.0071
631.00,0.0072
630.00,0.0073
629.00,0.0074
628.00,0.0075
627.00,0.0075
626.00,0.0077
625.00,0.0078
624.00,0.0079
623.00,0.0081
622.00,0.0083
621.00,0.0084
620.00,0.0083
619.00,0.0081
618.00,0.0079
617.00,0.0078
616.00,0.0077
615.00,0.0076
614.00,0.0075
613.00,0.0074
612.00,0.0072
611.00,0.0070
610.00,0.0069
609.00,0.0068
608.00,0.0067
607.00,0.0066
606.00,0.0067
605.00,0.0068
604.00,0.0068
603.00,0.0069
602.00,0.0069
601.00,0.0069
600.00,0.0069
599.00,0.0069
598.00,0.0071
597.00,0.0072
596.00,0.0072
595.00,0.0073
594.00,0.0073
593.00,0.0074
592.00,0.0074
591.00,0.0074
590.00,0.0075
589.00,0.0077
588.00,0.0079
587.00,0.0080
586.00,0.0081
585.00,0.0082
584.00,0.0083
583.00,0.0085
582.00,0.0088
581.00,0.0091
580.00,0.0093
579.00,0.0096
578.00,0.0100
577.00,0.0105
576.00,0.0110
575.00,0.0114
574.00,0.0120
573.00,0.0125
572.00,0.0130
571.00,0.0135
570.00,0.0139
569.00,0.0143
568.00,0.0146
567.00,0.0149
566.00,0.0154
565.00,0.0160
564.00,0.0165
563.00,0.0169
562.00,0.0175
561.00,0.0179
560.00,0.0182
559.00,0.0185
558.00,0.0190
557.00,0.0195
556.00,0.0200
555.00,0.0205
554.00,0.0211
553.00,0.0217
552.00,0.0221
551.00,0.0227
550.00,0.0234
549.00,0.0243
548.00,0.0252
547.00,0.0262
546.00,0.0273
545.00,0.0284
544.00,0.0294
543.00,0.0306
542.00,0.0319
541.00,0.0331
540.00,0.0341
539.00,0.0349
538.00,0.0354
537.00,0.0355
536.00,0.0350
535.00,0.0341
534.00,0.0329
533.00,0.0314
532.00,0.0298
531.00,0.0281
530.00,0.0264
529.00,0.0248
528.00,0.0231
527.00,0.0216
526.00,0.0203
525.00,0.0191
524.00,0.0180
523.00,0.0170
522.00,0.0164
521.00,0.0158
520.00,0.0153
519.00,0.0148
518.00,0.0143
517.00,0.0137
516.00,0.0131
515.00,0.0127
514.00,0.0125
513.00,0.0123
512.00,0.0120
511.00,0.0116
510.00,0.0113
509.00,0.0110
508.00,0.0106
507.00,0.0105
506.00,0.0104
505.00,0.0103
504.00,0.0099
503.00,0.0096
502.00,0.0094
501.00,0.0094
500.00,0.0092
499.00,0.0089
498.00,0.0086
497.00,0.0082
496.00,0.0079
495.00,0.0077
494.00,0.0078
493.00,0.0078
492.00,0.0076
491.00,0.0074
490.00,0.0075
489.00,0.0074
488.00,0.0073
487.00,0.0072
486.00,0.0072
485.00,0.0072
484.00,0.0070
483.00,0.0068
482.00,0.0068
481.00,0.0067
480.00,0.0066
479.00,0.0065
478.00,0.0066
477.00,0.0067
476.00,0.0064
475.00,0.0062
474.00,0.0062
473.00,0.0064
472.00,0.0063
471.00,0.0062
470.00,0.0062
469.00,0.0061
468.00,0.0059
467.00,0.0060
466.00,0.0062
465.00,0.0064
464.00,0.0062
463.00,0.0060
462.00,0.0060
461.00,0.0061
460.00,0.0060
459.00,0.0060
458.00,0.0062
457.00,0.0063
456.00,0.0060
455.00,0.0058
454.00,0.0061
453.00,0.0064
452.00,0.0063
451.00,0.0061
450.00,0.0061
449.00,0.0062
448.00,0.0062
447.00,0.0064
446.00,0.0068
445.00,0.0070
444.00,0.0067
443.00,0.0063
442.00,0.0061
441.00,0.0059
440.00,0.0056
439.00,0.0054
438.00,0.0056
437.00,0.0059
436.00,0.0058
435.00,0.0055
434.00,0.0053
433.00,0.0051
432.00,0.0046
431.00,0.0044
430.00,0.0046
429.00,0.0050
428.00,0.0051
427.00,0.0050
426.00,0.0047
425.00,0.0043
424.00,0.0039
423.00,0.0042
422.00,0.0052
421.00,0.0060
420.00,0.0058
419.00,0.0054
418.00,0.0054
417.00,0.0053
416.00,0.0048
415.00,0.0044
414.00,0.0045
413.00,0.0046
412.00,0.0042
411.00,0.0041
410.00,0.0049
409.00,0.0059
408.00,0.0063
407.00,0.0064
406.00,0.0069
405.00,0.0071
404.00,0.0066
403.00,0.0060
402.00,0.0061
401.00,0.0057
400.00,0.0039
