Created as New Dataset,Sample 863 By YargerLab Date Saturday, April 18 2026
cm-1,A
4000.00,0.0008
3999.00,0.0008
3998.00,0.0008
3997.00,0.0008
3996.00,0.0008
3995.00,0.0008
3994.00,0.0008
3993.00,0.0008
3992.00,0.0008
3991.00,0.0008
3990.00,0.0008
3989.00,0.0008
3988.00,0.0008
3987.00,0.0007
3986.00,0.0007
3985.00,0.0007
3984.00,0.0007
3983.00,0.0007
3982.00,0.0008
3981.00,0.0008
3980.00,0.0008
3979.00,0.0008
3978.00,0.0008
3977.00,0.0008
3976.00,0.0008
3975.00,0.0008
3974.00,0.0008
3973.00,0.0008
3972.00,0.0008
3971.00,0.0008
3970.00,0.0008
3969.00,0.0008
3968.00,0.0007
3967.00,0.0007
3966.00,0.0007
3965.00,0.0007
3964.00,0.0007
3963.00,0.0007
3962.00,0.0007
3961.00,0.0008
3960.00,0.0008
3959.00,0.0008
3958.00,0.0007
3957.00,0.0007
3956.00,0.0007
3955.00,0.0007
3954.00,0.0007
3953.00,0.0007
3952.00,0.0007
3951.00,0.0007
3950.00,0.0008
3949.00,0.0008
3948.00,0.0008
3947.00,0.0008
3946.00,0.0008
3945.00,0.0008
3944.00,0.0008
3943.00,0.0008
3942.00,0.0008
3941.00,0.0008
3940.00,0.0008
3939.00,0.0008
3938.00,0.0008
3937.00,0.0008
3936.00,0.0008
3935.00,0.0008
3934.00,0.0009
3933.00,0.0009
3932.00,0.0008
3931.00,0.0008
3930.00,0.0008
3929.00,0.0008
3928.00,0.0008
3927.00,0.0008
3926.00,0.0008
3925.00,0.0008
3924.00,0.0008
3923.00,0.0008
3922.00,0.0008
3921.00,0.0008
3920.00,0.0008
3919.00,0.0009
3918.00,0.0009
3917.00,0.0008
3916.00,0.0008
3915.00,0.0008
3914.00,0.0008
3913.00,0.0008
3912.00,0.0008
3911.00,0.0008
3910.00,0.0008
3909.00,0.0008
3908.00,0.0008
3907.00,0.0008
3906.00,0.0008
3905.00,0.0009
3904.00,0.0009
3903.00,0.0009
3902.00,0.0009
3901.00,0.0009
3900.00,0.0009
3899.00,0.0009
3898.00,0.0008
3897.00,0.0008
3896.00,0.0008
3895.00,0.0008
3894.00,0.0008
3893.00,0.0008
3892.00,0.0008
3891.00,0.0008
3890.00,0.0008
3889.00,0.0008
3888.00,0.0008
3887.00,0.0008
3886.00,0.0008
3885.00,0.0009
3884.00,0.0009
3883.00,0.0009
3882.00,0.0009
3881.00,0.0009
3880.00,0.0008
3879.00,0.0008
3878.00,0.0008
3877.00,0.0008
3876.00,0.0008
3875.00,0.0008
3874.00,0.0008
3873.00,0.0008
3872.00,0.0008
3871.00,0.0009
3870.00,0.0009
3869.00,0.0009
3868.00,0.0009
3867.00,0.0009
3866.00,0.0009
3865.00,0.0009
3864.00,0.0009
3863.00,0.0009
3862.00,0.0008
3861.00,0.0008
3860.00,0.0008
3859.00,0.0008
3858.00,0.0009
3857.00,0.0009
3856.00,0.0010
3855.00,0.0010
3854.00,0.0010
3853.00,0.0010
3852.00,0.0010
3851.00,0.0010
3850.00,0.0009
3849.00,0.0009
3848.00,0.0009
3847.00,0.0008
3846.00,0.0008
3845.00,0.0008
3844.00,0.0008
3843.00,0.0008
3842.00,0.0009
3841.00,0.0009
3840.00,0.0009
3839.00,0.0009
3838.00,0.0009
3837.00,0.0009
3836.00,0.0009
3835.00,0.0009
3834.00,0.0009
3833.00,0.0009
3832.00,0.0009
3831.00,0.0009
3830.00,0.0009
3829.00,0.0008
3828.00,0.0008
3827.00,0.0008
3826.00,0.0008
3825.00,0.0008
3824.00,0.0008
3823.00,0.0008
3822.00,0.0009
3821.00,0.0009
3820.00,0.0009
3819.00,0.0009
3818.00,0.0009
3817.00,0.0009
3816.00,0.0009
3815.00,0.0009
3814.00,0.0009
3813.00,0.0008
3812.00,0.0008
3811.00,0.0008
3810.00,0.0008
3809.00,0.0008
3808.00,0.0008
3807.00,0.0009
3806.00,0.0009
3805.00,0.0009
3804.00,0.0009
3803.00,0.0009
3802.00,0.0009
3801.00,0.0009
3800.00,0.0009
3799.00,0.0009
3798.00,0.0009
3797.00,0.0009
3796.00,0.0009
3795.00,0.0008
3794.00,0.0008
3793.00,0.0008
3792.00,0.0008
3791.00,0.0008
3790.00,0.0008
3789.00,0.0008
3788.00,0.0008
3787.00,0.0008
3786.00,0.0007
3785.00,0.0007
3784.00,0.0007
3783.00,0.0008
3782.00,0.0008
3781.00,0.0008
3780.00,0.0008
3779.00,0.0008
3778.00,0.0008
3777.00,0.0008
3776.00,0.0008
3775.00,0.0008
3774.00,0.0008
3773.00,0.0008
3772.00,0.0008
3771.00,0.0008
3770.00,0.0008
3769.00,0.0007
3768.00,0.0007
3767.00,0.0008
3766.00,0.0008
3765.00,0.0008
3764.00,0.0008
3763.00,0.0008
3762.00,0.0008
3761.00,0.0008
3760.00,0.0008
3759.00,0.0008
3758.00,0.0008
3757.00,0.0008
3756.00,0.0009
3755.00,0.0009
3754.00,0.0010
3753.00,0.0010
3752.00,0.0011
3751.00,0.0011
3750.00,0.0010
3749.00,0.0010
3748.00,0.0011
3747.00,0.0011
3746.00,0.0011
3745.00,0.0010
3744.00,0.0010
3743.00,0.0010
3742.00,0.0009
3741.00,0.0009
3740.00,0.0009
3739.00,0.0009
3738.00,0.0009
3737.00,0.0009
3736.00,0.0010
3735.00,0.0010
3734.00,0.0010
3733.00,0.0010
3732.00,0.0009
3731.00,0.0009
3730.00,0.0009
3729.00,0.0009
3728.00,0.0009
3727.00,0.0009
3726.00,0.0009
3725.00,0.0009
3724.00,0.0009
3723.00,0.0009
3722.00,0.0009
3721.00,0.0008
3720.00,0.0008
3719.00,0.0008
3718.00,0.0008
3717.00,0.0008
3716.00,0.0008
3715.00,0.0009
3714.00,0.0009
3713.00,0.0009
3712.00,0.0009
3711.00,0.0008
3710.00,0.0008
3709.00,0.0008
3708.00,0.0008
3707.00,0.0008
3706.00,0.0008
3705.00,0.0007
3704.00,0.0007
3703.00,0.0007
3702.00,0.0007
3701.00,0.0007
3700.00,0.0007
3699.00,0.0007
3698.00,0.0007
3697.00,0.0007
3696.00,0.0007
3695.00,0.0007
3694.00,0.0007
3693.00,0.0007
3692.00,0.0007
3691.00,0.0007
3690.00,0.0008
3689.00,0.0008
3688.00,0.0008
3687.00,0.0008
3686.00,0.0007
3685.00,0.0007
3684.00,0.0007
3683.00,0.0006
3682.00,0.0006
3681.00,0.0006
3680.00,0.0005
3679.00,0.0005
3678.00,0.0005
3677.00,0.0005
3676.00,0.0005
3675.00,0.0005
3674.00,0.0005
3673.00,0.0005
3672.00,0.0005
3671.00,0.0005
3670.00,0.0005
3669.00,0.0005
3668.00,0.0005
3667.00,0.0005
3666.00,0.0004
3665.00,0.0004
3664.00,0.0004
3663.00,0.0003
3662.00,0.0003
3661.00,0.0003
3660.00,0.0003
3659.00,0.0003
3658.00,0.0003
3657.00,0.0003
3656.00,0.0003
3655.00,0.0003
3654.00,0.0004
3653.00,0.0004
3652.00,0.0005
3651.00,0.0005
3650.00,0.0005
3649.00,0.0005
3648.00,0.0005
3647.00,0.0005
3646.00,0.0005
3645.00,0.0005
3644.00,0.0005
3643.00,0.0005
3642.00,0.0005
3641.00,0.0005
3640.00,0.0005
3639.00,0.0005
3638.00,0.0005
3637.00,0.0005
3636.00,0.0005
3635.00,0.0005
3634.00,0.0005
3633.00,0.0006
3632.00,0.0006
3631.00,0.0007
3630.00,0.0007
3629.00,0.0007
3628.00,0.0008
3627.00,0.0008
3626.00,0.0008
3625.00,0.0008
3624.00,0.0008
3623.00,0.0008
3622.00,0.0008
3621.00,0.0008
3620.00,0.0008
3619.00,0.0008
3618.00,0.0008
3617.00,0.0008
3616.00,0.0008
3615.00,0.0008
3614.00,0.0008
3613.00,0.0008
3612.00,0.0008
3611.00,0.0008
3610.00,0.0008
3609.00,0.0008
3608.00,0.0008
3607.00,0.0008
3606.00,0.0008
3605.00,0.0008
3604.00,0.0007
3603.00,0.0007
3602.00,0.0007
3601.00,0.0007
3600.00,0.0007
3599.00,0.0007
3598.00,0.0007
3597.00,0.0008
3596.00,0.0008
3595.00,0.0008
3594.00,0.0008
3593.00,0.0008
3592.00,0.0008
3591.00,0.0008
3590.00,0.0008
3589.00,0.0008
3588.00,0.0008
3587.00,0.0008
3586.00,0.0007
3585.00,0.0007
3584.00,0.0007
3583.00,0.0007
3582.00,0.0007
3581.00,0.0007
3580.00,0.0007
3579.00,0.0006
3578.00,0.0006
3577.00,0.0006
3576.00,0.0006
3575.00,0.0006
3574.00,0.0006
3573.00,0.0006
3572.00,0.0007
3571.00,0.0007
3570.00,0.0008
3569.00,0.0008
3568.00,0.0008
3567.00,0.0008
3566.00,0.0008
3565.00,0.0008
3564.00,0.0008
3563.00,0.0008
3562.00,0.0007
3561.00,0.0007
3560.00,0.0007
3559.00,0.0007
3558.00,0.0007
3557.00,0.0007
3556.00,0.0007
3555.00,0.0007
3554.00,0.0007
3553.00,0.0007
3552.00,0.0008
3551.00,0.0008
3550.00,0.0008
3549.00,0.0008
3548.00,0.0008
3547.00,0.0008
3546.00,0.0008
3545.00,0.0007
3544.00,0.0007
3543.00,0.0008
3542.00,0.0008
3541.00,0.0008
3540.00,0.0008
3539.00,0.0008
3538.00,0.0008
3537.00,0.0008
3536.00,0.0008
3535.00,0.0008
3534.00,0.0008
3533.00,0.0008
3532.00,0.0008
3531.00,0.0008
3530.00,0.0008
3529.00,0.0008
3528.00,0.0008
3527.00,0.0008
3526.00,0.0008
3525.00,0.0008
3524.00,0.0008
3523.00,0.0008
3522.00,0.0008
3521.00,0.0008
3520.00,0.0008
3519.00,0.0008
3518.00,0.0009
3517.00,0.0009
3516.00,0.0009
3515.00,0.0009
3514.00,0.0009
3513.00,0.0008
3512.00,0.0008
3511.00,0.0008
3510.00,0.0008
3509.00,0.0008
3508.00,0.0009
3507.00,0.0009
3506.00,0.0009
3505.00,0.0009
3504.00,0.0009
3503.00,0.0009
3502.00,0.0009
3501.00,0.0009
3500.00,0.0009
3499.00,0.0009
3498.00,0.0009
3497.00,0.0009
3496.00,0.0009
3495.00,0.0009
3494.00,0.0009
3493.00,0.0009
3492.00,0.0009
3491.00,0.0009
3490.00,0.0009
3489.00,0.0009
3488.00,0.0009
3487.00,0.0009
3486.00,0.0009
3485.00,0.0009
3484.00,0.0009
3483.00,0.0008
3482.00,0.0008
3481.00,0.0008
3480.00,0.0008
3479.00,0.0009
3478.00,0.0009
3477.00,0.0009
3476.00,0.0009
3475.00,0.0010
3474.00,0.0009
3473.00,0.0009
3472.00,0.0009
3471.00,0.0009
3470.00,0.0009
3469.00,0.0009
3468.00,0.0009
3467.00,0.0009
3466.00,0.0009
3465.00,0.0009
3464.00,0.0009
3463.00,0.0009
3462.00,0.0010
3461.00,0.0010
3460.00,0.0010
3459.00,0.0010
3458.00,0.0010
3457.00,0.0010
3456.00,0.0010
3455.00,0.0010
3454.00,0.0010
3453.00,0.0010
3452.00,0.0010
3451.00,0.0010
3450.00,0.0010
3449.00,0.0010
3448.00,0.0010
3447.00,0.0010
3446.00,0.0010
3445.00,0.0010
3444.00,0.0010
3443.00,0.0010
3442.00,0.0010
3441.00,0.0010
3440.00,0.0010
3439.00,0.0010
3438.00,0.0010
3437.00,0.0010
3436.00,0.0010
3435.00,0.0010
3434.00,0.0010
3433.00,0.0010
3432.00,0.0010
3431.00,0.0010
3430.00,0.0010
3429.00,0.0010
3428.00,0.0010
3427.00,0.0010
3426.00,0.0010
3425.00,0.0010
3424.00,0.0010
3423.00,0.0010
3422.00,0.0010
3421.00,0.0010
3420.00,0.0010
3419.00,0.0010
3418.00,0.0010
3417.00,0.0010
3416.00,0.0010
3415.00,0.0010
3414.00,0.0010
3413.00,0.0009
3412.00,0.0010
3411.00,0.0010
3410.00,0.0010
3409.00,0.0010
3408.00,0.0010
3407.00,0.0010
3406.00,0.0010
3405.00,0.0010
3404.00,0.0010
3403.00,0.0010
3402.00,0.0010
3401.00,0.0010
3400.00,0.0010
3399.00,0.0011
3398.00,0.0011
3397.00,0.0011
3396.00,0.0011
3395.00,0.0010
3394.00,0.0010
3393.00,0.0010
3392.00,0.0010
3391.00,0.0010
3390.00,0.0010
3389.00,0.0010
3388.00,0.0010
3387.00,0.0010
3386.00,0.0010
3385.00,0.0010
3384.00,0.0010
3383.00,0.0010
3382.00,0.0010
3381.00,0.0010
3380.00,0.0010
3379.00,0.0010
3378.00,0.0011
3377.00,0.0011
3376.00,0.0011
3375.00,0.0011
3374.00,0.0011
3373.00,0.0011
3372.00,0.0011
3371.00,0.0011
3370.00,0.0011
3369.00,0.0011
3368.00,0.0011
3367.00,0.0011
3366.00,0.0011
3365.00,0.0011
3364.00,0.0010
3363.00,0.0010
3362.00,0.0010
3361.00,0.0010
3360.00,0.0010
3359.00,0.0010
3358.00,0.0010
3357.00,0.0010
3356.00,0.0010
3355.00,0.0010
3354.00,0.0010
3353.00,0.0010
3352.00,0.0010
3351.00,0.0011
3350.00,0.0011
3349.00,0.0011
3348.00,0.0011
3347.00,0.0011
3346.00,0.0011
3345.00,0.0010
3344.00,0.0010
3343.00,0.0010
3342.00,0.0011
3341.00,0.0011
3340.00,0.0011
3339.00,0.0010
3338.00,0.0010
3337.00,0.0011
3336.00,0.0011
3335.00,0.0011
3334.00,0.0011
3333.00,0.0011
3332.00,0.0011
3331.00,0.0011
3330.00,0.0011
3329.00,0.0011
3328.00,0.0011
3327.00,0.0011
3326.00,0.0011
3325.00,0.0011
3324.00,0.0011
3323.00,0.0011
3322.00,0.0011
3321.00,0.0011
3320.00,0.0011
3319.00,0.0011
3318.00,0.0011
3317.00,0.0011
3316.00,0.0011
3315.00,0.0011
3314.00,0.0011
3313.00,0.0011
3312.00,0.0011
3311.00,0.0011
3310.00,0.0011
3309.00,0.0011
3308.00,0.0011
3307.00,0.0011
3306.00,0.0011
3305.00,0.0011
3304.00,0.0011
3303.00,0.0011
3302.00,0.0011
3301.00,0.0011
3300.00,0.0011
3299.00,0.0011
3298.00,0.0011
3297.00,0.0011
3296.00,0.0011
3295.00,0.0011
3294.00,0.0011
3293.00,0.0011
3292.00,0.0011
3291.00,0.0011
3290.00,0.0011
3289.00,0.0011
3288.00,0.0011
3287.00,0.0011
3286.00,0.0011
3285.00,0.0011
3284.00,0.0011
3283.00,0.0011
3282.00,0.0011
3281.00,0.0011
3280.00,0.0011
3279.00,0.0011
3278.00,0.0011
3277.00,0.0010
3276.00,0.0010
3275.00,0.0010
3274.00,0.0010
3273.00,0.0010
3272.00,0.0010
3271.00,0.0011
3270.00,0.0011
3269.00,0.0011
3268.00,0.0011
3267.00,0.0011
3266.00,0.0010
3265.00,0.0010
3264.00,0.0010
3263.00,0.0010
3262.00,0.0010
3261.00,0.0010
3260.00,0.0011
3259.00,0.0011
3258.00,0.0011
3257.00,0.0011
3256.00,0.0011
3255.00,0.0011
3254.00,0.0011
3253.00,0.0011
3252.00,0.0011
3251.00,0.0010
3250.00,0.0010
3249.00,0.0010
3248.00,0.0010
3247.00,0.0010
3246.00,0.0010
3245.00,0.0010
3244.00,0.0010
3243.00,0.0010
3242.00,0.0011
3241.00,0.0011
3240.00,0.0011
3239.00,0.0010
3238.00,0.0010
3237.00,0.0010
3236.00,0.0010
3235.00,0.0010
3234.00,0.0010
3233.00,0.0010
3232.00,0.0010
3231.00,0.0010
3230.00,0.0011
3229.00,0.0011
3228.00,0.0010
3227.00,0.0010
3226.00,0.0010
3225.00,0.0010
3224.00,0.0010
3223.00,0.0010
3222.00,0.0010
3221.00,0.0010
3220.00,0.0010
3219.00,0.0010
3218.00,0.0010
3217.00,0.0010
3216.00,0.0010
3215.00,0.0010
3214.00,0.0010
3213.00,0.0010
3212.00,0.0010
3211.00,0.0010
3210.00,0.0010
3209.00,0.0010
3208.00,0.0010
3207.00,0.0010
3206.00,0.0010
3205.00,0.0010
3204.00,0.0010
3203.00,0.0010
3202.00,0.0011
3201.00,0.0011
3200.00,0.0011
3199.00,0.0011
3198.00,0.0010
3197.00,0.0010
3196.00,0.0010
3195.00,0.0010
3194.00,0.0010
3193.00,0.0010
3192.00,0.0010
3191.00,0.0010
3190.00,0.0010
3189.00,0.0010
3188.00,0.0010
3187.00,0.0010
3186.00,0.0010
3185.00,0.0010
3184.00,0.0010
3183.00,0.0010
3182.00,0.0010
3181.00,0.0010
3180.00,0.0010
3179.00,0.0009
3178.00,0.0009
3177.00,0.0009
3176.00,0.0009
3175.00,0.0009
3174.00,0.0009
3173.00,0.0009
3172.00,0.0009
3171.00,0.0010
3170.00,0.0010
3169.00,0.0010
3168.00,0.0010
3167.00,0.0010
3166.00,0.0010
3165.00,0.0010
3164.00,0.0010
3163.00,0.0010
3162.00,0.0010
3161.00,0.0010
3160.00,0.0009
3159.00,0.0010
3158.00,0.0010
3157.00,0.0010
3156.00,0.0010
3155.00,0.0010
3154.00,0.0010
3153.00,0.0009
3152.00,0.0009
3151.00,0.0009
3150.00,0.0009
3149.00,0.0009
3148.00,0.0009
3147.00,0.0010
3146.00,0.0010
3145.00,0.0010
3144.00,0.0010
3143.00,0.0009
3142.00,0.0009
3141.00,0.0009
3140.00,0.0009
3139.00,0.0009
3138.00,0.0009
3137.00,0.0009
3136.00,0.0009
3135.00,0.0009
3134.00,0.0009
3133.00,0.0009
3132.00,0.0009
3131.00,0.0009
3130.00,0.0009
3129.00,0.0009
3128.00,0.0010
3127.00,0.0010
3126.00,0.0010
3125.00,0.0010
3124.00,0.0010
3123.00,0.0010
3122.00,0.0010
3121.00,0.0010
3120.00,0.0010
3119.00,0.0010
3118.00,0.0010
3117.00,0.0011
3116.00,0.0011
3115.00,0.0011
3114.00,0.0012
3113.00,0.0012
3112.00,0.0012
3111.00,0.0012
3110.00,0.0013
3109.00,0.0014
3108.00,0.0014
3107.00,0.0015
3106.00,0.0016
3105.00,0.0017
3104.00,0.0017
3103.00,0.0017
3102.00,0.0017
3101.00,0.0017
3100.00,0.0017
3099.00,0.0017
3098.00,0.0017
3097.00,0.0017
3096.00,0.0017
3095.00,0.0017
3094.00,0.0017
3093.00,0.0018
3092.00,0.0018
3091.00,0.0019
3090.00,0.0020
3089.00,0.0022
3088.00,0.0024
3087.00,0.0026
3086.00,0.0029
3085.00,0.0031
3084.00,0.0033
3083.00,0.0034
3082.00,0.0035
3081.00,0.0034
3080.00,0.0033
3079.00,0.0032
3078.00,0.0031
3077.00,0.0029
3076.00,0.0028
3075.00,0.0027
3074.00,0.0027
3073.00,0.0027
3072.00,0.0027
3071.00,0.0027
3070.00,0.0028
3069.00,0.0029
3068.00,0.0030
3067.00,0.0032
3066.00,0.0034
3065.00,0.0037
3064.00,0.0039
3063.00,0.0042
3062.00,0.0044
3061.00,0.0046
3060.00,0.0047
3059.00,0.0047
3058.00,0.0046
3057.00,0.0045
3056.00,0.0042
3055.00,0.0040
3054.00,0.0038
3053.00,0.0035
3052.00,0.0033
3051.00,0.0031
3050.00,0.0030
3049.00,0.0028
3048.00,0.0028
3047.00,0.0027
3046.00,0.0026
3045.00,0.0026
3044.00,0.0026
3043.00,0.0026
3042.00,0.0027
3041.00,0.0028
3040.00,0.0029
3039.00,0.0030
3038.00,0.0032
3037.00,0.0035
3036.00,0.0037
3035.00,0.0040
3034.00,0.0044
3033.00,0.0049
3032.00,0.0054
3031.00,0.0060
3030.00,0.0066
3029.00,0.0072
3028.00,0.0077
3027.00,0.0082
3026.00,0.0085
3025.00,0.0086
3024.00,0.0085
3023.00,0.0082
3022.00,0.0077
3021.00,0.0071
3020.00,0.0064
3019.00,0.0057
3018.00,0.0050
3017.00,0.0044
3016.00,0.0039
3015.00,0.0034
3014.00,0.0031
3013.00,0.0027
3012.00,0.0025
3011.00,0.0023
3010.00,0.0021
3009.00,0.0020
3008.00,0.0019
3007.00,0.0018
3006.00,0.0017
3005.00,0.0017
3004.00,0.0017
3003.00,0.0016
3002.00,0.0015
3001.00,0.0014
3000.00,0.0013
2999.00,0.0011
2998.00,0.0010
2997.00,0.0008
2996.00,0.0006
2995.00,0.0004
2994.00,0.0002
2993.00,0.0000
2992.00,-0.0001
2991.00,-0.0002
2990.00,-0.0003
2989.00,-0.0003
2988.00,-0.0004
2987.00,-0.0004
2986.00,-0.0006
2985.00,-0.0008
2984.00,-0.0012
2983.00,-0.0015
2982.00,-0.0018
2981.00,-0.0019
2980.00,-0.0018
2979.00,-0.0016
2978.00,-0.0014
2977.00,-0.0011
2976.00,-0.0010
2975.00,-0.0009
2974.00,-0.0009
2973.00,-0.0009
2972.00,-0.0009
2971.00,-0.0008
2970.00,-0.0007
2969.00,-0.0005
2968.00,-0.0003
2967.00,-0.0001
2966.00,0.0001
2965.00,0.0003
2964.00,0.0004
2963.00,0.0005
2962.00,0.0007
2961.00,0.0008
2960.00,0.0009
2959.00,0.0011
2958.00,0.0012
2957.00,0.0013
2956.00,0.0015
2955.00,0.0017
2954.00,0.0018
2953.00,0.0020
2952.00,0.0022
2951.00,0.0024
2950.00,0.0025
2949.00,0.0027
2948.00,0.0029
2947.00,0.0031
2946.00,0.0034
2945.00,0.0036
2944.00,0.0039
2943.00,0.0041
2942.00,0.0044
2941.00,0.0047
2940.00,0.0051
2939.00,0.0054
2938.00,0.0058
2937.00,0.0061
2936.00,0.0065
2935.00,0.0068
2934.00,0.0072
2933.00,0.0076
2932.00,0.0080
2931.00,0.0084
2930.00,0.0088
2929.00,0.0091
2928.00,0.0095
2927.00,0.0098
2926.00,0.0101
2925.00,0.0103
2924.00,0.0105
2923.00,0.0106
2922.00,0.0107
2921.00,0.0107
2920.00,0.0107
2919.00,0.0107
2918.00,0.0105
2917.00,0.0104
2916.00,0.0102
2915.00,0.0100
2914.00,0.0097
2913.00,0.0094
2912.00,0.0091
2911.00,0.0088
2910.00,0.0085
2909.00,0.0082
2908.00,0.0080
2907.00,0.0077
2906.00,0.0074
2905.00,0.0071
2904.00,0.0068
2903.00,0.0066
2902.00,0.0063
2901.00,0.0060
2900.00,0.0057
2899.00,0.0055
2898.00,0.0052
2897.00,0.0049
2896.00,0.0047
2895.00,0.0045
2894.00,0.0043
2893.00,0.0041
2892.00,0.0040
2891.00,0.0038
2890.00,0.0037
2889.00,0.0036
2888.00,0.0035
2887.00,0.0034
2886.00,0.0033
2885.00,0.0032
2884.00,0.0032
2883.00,0.0031
2882.00,0.0031
2881.00,0.0031
2880.00,0.0030
2879.00,0.0030
2878.00,0.0030
2877.00,0.0030
2876.00,0.0029
2875.00,0.0029
2874.00,0.0029
2873.00,0.0029
2872.00,0.0028
2871.00,0.0028
2870.00,0.0028
2869.00,0.0029
2868.00,0.0029
2867.00,0.0029
2866.00,0.0030
2865.00,0.0030
2864.00,0.0031
2863.00,0.0032
2862.00,0.0034
2861.00,0.0036
2860.00,0.0038
2859.00,0.0040
2858.00,0.0042
2857.00,0.0044
2856.00,0.0046
2855.00,0.0048
2854.00,0.0050
2853.00,0.0052
2852.00,0.0053
2851.00,0.0054
2850.00,0.0055
2849.00,0.0055
2848.00,0.0054
2847.00,0.0053
2846.00,0.0052
2845.00,0.0050
2844.00,0.0047
2843.00,0.0044
2842.00,0.0042
2841.00,0.0039
2840.00,0.0036
2839.00,0.0033
2838.00,0.0030
2837.00,0.0028
2836.00,0.0026
2835.00,0.0024
2834.00,0.0023
2833.00,0.0021
2832.00,0.0021
2831.00,0.0020
2830.00,0.0019
2829.00,0.0018
2828.00,0.0018
2827.00,0.0017
2826.00,0.0017
2825.00,0.0017
2824.00,0.0016
2823.00,0.0016
2822.00,0.0016
2821.00,0.0016
2820.00,0.0016
2819.00,0.0016
2818.00,0.0016
2817.00,0.0015
2816.00,0.0015
2815.00,0.0015
2814.00,0.0015
2813.00,0.0015
2812.00,0.0015
2811.00,0.0015
2810.00,0.0015
2809.00,0.0015
2808.00,0.0015
2807.00,0.0014
2806.00,0.0014
2805.00,0.0014
2804.00,0.0014
2803.00,0.0014
2802.00,0.0014
2801.00,0.0014
2800.00,0.0014
2799.00,0.0014
2798.00,0.0014
2797.00,0.0014
2796.00,0.0014
2795.00,0.0013
2794.00,0.0013
2793.00,0.0013
2792.00,0.0013
2791.00,0.0013
2790.00,0.0013
2789.00,0.0013
2788.00,0.0013
2787.00,0.0013
2786.00,0.0013
2785.00,0.0013
2784.00,0.0013
2783.00,0.0013
2782.00,0.0013
2781.00,0.0013
2780.00,0.0013
2779.00,0.0012
2778.00,0.0012
2777.00,0.0013
2776.00,0.0013
2775.00,0.0013
2774.00,0.0012
2773.00,0.0013
2772.00,0.0013
2771.00,0.0013
2770.00,0.0012
2769.00,0.0012
2768.00,0.0012
2767.00,0.0012
2766.00,0.0012
2765.00,0.0012
2764.00,0.0012
2763.00,0.0012
2762.00,0.0012
2761.00,0.0012
2760.00,0.0012
2759.00,0.0012
2758.00,0.0012
2757.00,0.0012
2756.00,0.0012
2755.00,0.0012
2754.00,0.0012
2753.00,0.0012
2752.00,0.0012
2751.00,0.0012
2750.00,0.0012
2749.00,0.0012
2748.00,0.0012
2747.00,0.0012
2746.00,0.0012
2745.00,0.0012
2744.00,0.0012
2743.00,0.0012
2742.00,0.0012
2741.00,0.0012
2740.00,0.0012
2739.00,0.0012
2738.00,0.0012
2737.00,0.0012
2736.00,0.0012
2735.00,0.0012
2734.00,0.0012
2733.00,0.0012
2732.00,0.0012
2731.00,0.0012
2730.00,0.0012
2729.00,0.0013
2728.00,0.0013
2727.00,0.0012
2726.00,0.0012
2725.00,0.0012
2724.00,0.0012
2723.00,0.0012
2722.00,0.0012
2721.00,0.0012
2720.00,0.0012
2719.00,0.0012
2718.00,0.0012
2717.00,0.0012
2716.00,0.0012
2715.00,0.0012
2714.00,0.0012
2713.00,0.0012
2712.00,0.0012
2711.00,0.0012
2710.00,0.0012
2709.00,0.0012
2708.00,0.0012
2707.00,0.0012
2706.00,0.0012
2705.00,0.0012
2704.00,0.0012
2703.00,0.0012
2702.00,0.0012
2701.00,0.0012
2700.00,0.0012
2699.00,0.0012
2698.00,0.0012
2697.00,0.0012
2696.00,0.0012
2695.00,0.0012
2694.00,0.0012
2693.00,0.0012
2692.00,0.0012
2691.00,0.0012
2690.00,0.0012
2689.00,0.0012
2688.00,0.0012
2687.00,0.0012
2686.00,0.0012
2685.00,0.0012
2684.00,0.0012
2683.00,0.0012
2682.00,0.0012
2681.00,0.0012
2680.00,0.0012
2679.00,0.0012
2678.00,0.0012
2677.00,0.0012
2676.00,0.0012
2675.00,0.0012
2674.00,0.0012
2673.00,0.0012
2672.00,0.0012
2671.00,0.0012
2670.00,0.0012
2669.00,0.0012
2668.00,0.0012
2667.00,0.0013
2666.00,0.0013
2665.00,0.0013
2664.00,0.0013
2663.00,0.0014
2662.00,0.0014
2661.00,0.0014
2660.00,0.0014
2659.00,0.0014
2658.00,0.0014
2657.00,0.0014
2656.00,0.0014
2655.00,0.0014
2654.00,0.0014
2653.00,0.0014
2652.00,0.0014
2651.00,0.0014
2650.00,0.0014
2649.00,0.0014
2648.00,0.0014
2647.00,0.0014
2646.00,0.0014
2645.00,0.0014
2644.00,0.0014
2643.00,0.0015
2642.00,0.0014
2641.00,0.0014
2640.00,0.0014
2639.00,0.0014
2638.00,0.0014
2637.00,0.0014
2636.00,0.0014
2635.00,0.0014
2634.00,0.0014
2633.00,0.0014
2632.00,0.0014
2631.00,0.0014
2630.00,0.0014
2629.00,0.0014
2628.00,0.0014
2627.00,0.0014
2626.00,0.0014
2625.00,0.0014
2624.00,0.0014
2623.00,0.0014
2622.00,0.0014
2621.00,0.0014
2620.00,0.0014
2619.00,0.0014
2618.00,0.0014
2617.00,0.0014
2616.00,0.0014
2615.00,0.0014
2614.00,0.0013
2613.00,0.0013
2612.00,0.0013
2611.00,0.0014
2610.00,0.0014
2609.00,0.0014
2608.00,0.0014
2607.00,0.0014
2606.00,0.0014
2605.00,0.0014
2604.00,0.0013
2603.00,0.0013
2602.00,0.0013
2601.00,0.0013
2600.00,0.0013
2599.00,0.0013
2598.00,0.0013
2597.00,0.0013
2596.00,0.0013
2595.00,0.0012
2594.00,0.0012
2593.00,0.0012
2592.00,0.0012
2591.00,0.0012
2590.00,0.0012
2589.00,0.0012
2588.00,0.0012
2587.00,0.0013
2586.00,0.0013
2585.00,0.0012
2584.00,0.0012
2583.00,0.0012
2582.00,0.0012
2581.00,0.0012
2580.00,0.0012
2579.00,0.0012
2578.00,0.0012
2577.00,0.0012
2576.00,0.0012
2575.00,0.0011
2574.00,0.0011
2573.00,0.0011
2572.00,0.0011
2571.00,0.0011
2570.00,0.0011
2569.00,0.0011
2568.00,0.0011
2567.00,0.0011
2566.00,0.0012
2565.00,0.0012
2564.00,0.0012
2563.00,0.0011
2562.00,0.0011
2561.00,0.0011
2560.00,0.0011
2559.00,0.0011
2558.00,0.0011
2557.00,0.0011
2556.00,0.0011
2555.00,0.0011
2554.00,0.0011
2553.00,0.0011
2552.00,0.0011
2551.00,0.0011
2550.00,0.0011
2549.00,0.0011
2548.00,0.0011
2547.00,0.0011
2546.00,0.0011
2545.00,0.0010
2544.00,0.0010
2543.00,0.0010
2542.00,0.0010
2541.00,0.0010
2540.00,0.0010
2539.00,0.0011
2538.00,0.0011
2537.00,0.0010
2536.00,0.0010
2535.00,0.0010
2534.00,0.0010
2533.00,0.0010
2532.00,0.0010
2531.00,0.0010
2530.00,0.0010
2529.00,0.0010
2528.00,0.0010
2527.00,0.0010
2526.00,0.0010
2525.00,0.0010
2524.00,0.0010
2523.00,0.0010
2522.00,0.0010
2521.00,0.0010
2520.00,0.0010
2519.00,0.0010
2518.00,0.0010
2517.00,0.0010
2516.00,0.0011
2515.00,0.0010
2514.00,0.0010
2513.00,0.0010
2512.00,0.0009
2511.00,0.0009
2510.00,0.0010
2509.00,0.0010
2508.00,0.0010
2507.00,0.0011
2506.00,0.0011
2505.00,0.0010
2504.00,0.0010
2503.00,0.0010
2502.00,0.0009
2501.00,0.0009
2500.00,0.0009
2499.00,0.0009
2498.00,0.0009
2497.00,0.0009
2496.00,0.0009
2495.00,0.0009
2494.00,0.0009
2493.00,0.0009
2492.00,0.0009
2491.00,0.0009
2490.00,0.0009
2489.00,0.0009
2488.00,0.0009
2487.00,0.0009
2486.00,0.0009
2485.00,0.0009
2484.00,0.0009
2483.00,0.0009
2482.00,0.0009
2481.00,0.0009
2480.00,0.0009
2479.00,0.0009
2478.00,0.0009
2477.00,0.0009
2476.00,0.0009
2475.00,0.0009
2474.00,0.0009
2473.00,0.0009
2472.00,0.0009
2471.00,0.0009
2470.00,0.0009
2469.00,0.0009
2468.00,0.0009
2467.00,0.0009
2466.00,0.0009
2465.00,0.0009
2464.00,0.0009
2463.00,0.0010
2462.00,0.0010
2461.00,0.0010
2460.00,0.0010
2459.00,0.0010
2458.00,0.0010
2457.00,0.0010
2456.00,0.0011
2455.00,0.0011
2454.00,0.0011
2453.00,0.0011
2452.00,0.0011
2451.00,0.0010
2450.00,0.0010
2449.00,0.0010
2448.00,0.0009
2447.00,0.0009
2446.00,0.0009
2445.00,0.0009
2444.00,0.0009
2443.00,0.0009
2442.00,0.0009
2441.00,0.0009
2440.00,0.0009
2439.00,0.0008
2438.00,0.0008
2437.00,0.0008
2436.00,0.0008
2435.00,0.0008
2434.00,0.0008
2433.00,0.0008
2432.00,0.0008
2431.00,0.0008
2430.00,0.0008
2429.00,0.0008
2428.00,0.0008
2427.00,0.0008
2426.00,0.0008
2425.00,0.0008
2424.00,0.0008
2423.00,0.0008
2422.00,0.0008
2421.00,0.0008
2420.00,0.0008
2419.00,0.0008
2418.00,0.0008
2417.00,0.0008
2416.00,0.0008
2415.00,0.0007
2414.00,0.0007
2413.00,0.0008
2412.00,0.0008
2411.00,0.0008
2410.00,0.0008
2409.00,0.0008
2408.00,0.0008
2407.00,0.0007
2406.00,0.0007
2405.00,0.0007
2404.00,0.0007
2403.00,0.0007
2402.00,0.0006
2401.00,0.0006
2400.00,0.0006
2399.00,0.0006
2398.00,0.0006
2397.00,0.0007
2396.00,0.0007
2395.00,0.0007
2394.00,0.0006
2393.00,0.0006
2392.00,0.0006
2391.00,0.0006
2390.00,0.0007
2389.00,0.0007
2388.00,0.0006
2387.00,0.0006
2386.00,0.0006
2385.00,0.0007
2384.00,0.0007
2383.00,0.0007
2382.00,0.0007
2381.00,0.0006
2380.00,0.0007
2379.00,0.0007
2378.00,0.0007
2377.00,0.0007
2376.00,0.0007
2375.00,0.0007
2374.00,0.0007
2373.00,0.0007
2372.00,0.0007
2371.00,0.0007
2370.00,0.0006
2369.00,0.0006
2368.00,0.0006
2367.00,0.0006
2366.00,0.0006
2365.00,0.0007
2364.00,0.0007
2363.00,0.0008
2362.00,0.0008
2361.00,0.0008
2360.00,0.0008
2359.00,0.0008
2358.00,0.0008
2357.00,0.0009
2356.00,0.0009
2355.00,0.0008
2354.00,0.0008
2353.00,0.0008
2352.00,0.0009
2351.00,0.0009
2350.00,0.0009
2349.00,0.0009
2348.00,0.0009
2347.00,0.0010
2346.00,0.0010
2345.00,0.0011
2344.00,0.0012
2343.00,0.0011
2342.00,0.0011
2341.00,0.0011
2340.00,0.0011
2339.00,0.0011
2338.00,0.0012
2337.00,0.0012
2336.00,0.0011
2335.00,0.0011
2334.00,0.0011
2333.00,0.0010
2332.00,0.0010
2331.00,0.0010
2330.00,0.0010
2329.00,0.0011
2328.00,0.0012
2327.00,0.0014
2326.00,0.0016
2325.00,0.0017
2324.00,0.0017
2323.00,0.0017
2322.00,0.0015
2321.00,0.0014
2320.00,0.0013
2319.00,0.0013
2318.00,0.0012
2317.00,0.0011
2316.00,0.0011
2315.00,0.0011
2314.00,0.0011
2313.00,0.0011
2312.00,0.0012
2311.00,0.0012
2310.00,0.0012
2309.00,0.0012
2308.00,0.0012
2307.00,0.0012
2306.00,0.0012
2305.00,0.0011
2304.00,0.0011
2303.00,0.0011
2302.00,0.0011
2301.00,0.0011
2300.00,0.0011
2299.00,0.0012
2298.00,0.0012
2297.00,0.0012
2296.00,0.0012
2295.00,0.0013
2294.00,0.0013
2293.00,0.0013
2292.00,0.0014
2291.00,0.0014
2290.00,0.0014
2289.00,0.0015
2288.00,0.0015
2287.00,0.0015
2286.00,0.0015
2285.00,0.0015
2284.00,0.0014
2283.00,0.0013
2282.00,0.0013
2281.00,0.0012
2280.00,0.0012
2279.00,0.0012
2278.00,0.0012
2277.00,0.0012
2276.00,0.0012
2275.00,0.0012
2274.00,0.0012
2273.00,0.0012
2272.00,0.0013
2271.00,0.0013
2270.00,0.0013
2269.00,0.0013
2268.00,0.0012
2267.00,0.0011
2266.00,0.0011
2265.00,0.0011
2264.00,0.0011
2263.00,0.0011
2262.00,0.0012
2261.00,0.0012
2260.00,0.0012
2259.00,0.0012
2258.00,0.0011
2257.00,0.0010
2256.00,0.0009
2255.00,0.0007
2254.00,0.0007
2253.00,0.0008
2252.00,0.0009
2251.00,0.0010
2250.00,0.0011
2249.00,0.0011
2248.00,0.0011
2247.00,0.0011
2246.00,0.0010
2245.00,0.0010
2244.00,0.0010
2243.00,0.0010
2242.00,0.0010
2241.00,0.0009
2240.00,0.0009
2239.00,0.0009
2238.00,0.0009
2237.00,0.0009
2236.00,0.0010
2235.00,0.0010
2234.00,0.0009
2233.00,0.0008
2232.00,0.0008
2231.00,0.0008
2230.00,0.0008
2229.00,0.0008
2228.00,0.0008
2227.00,0.0008
2226.00,0.0008
2225.00,0.0009
2224.00,0.0010
2223.00,0.0010
2222.00,0.0011
2221.00,0.0011
2220.00,0.0010
2219.00,0.0009
2218.00,0.0008
2217.00,0.0007
2216.00,0.0007
2215.00,0.0008
2214.00,0.0009
2213.00,0.0010
2212.00,0.0010
2211.00,0.0010
2210.00,0.0009
2209.00,0.0010
2208.00,0.0010
2207.00,0.0011
2206.00,0.0010
2205.00,0.0008
2204.00,0.0007
2203.00,0.0007
2202.00,0.0007
2201.00,0.0007
2200.00,0.0008
2199.00,0.0008
2198.00,0.0008
2197.00,0.0007
2196.00,0.0007
2195.00,0.0008
2194.00,0.0008
2193.00,0.0009
2192.00,0.0009
2191.00,0.0009
2190.00,0.0009
2189.00,0.0009
2188.00,0.0009
2187.00,0.0009
2186.00,0.0009
2185.00,0.0009
2184.00,0.0009
2183.00,0.0009
2182.00,0.0009
2181.00,0.0008
2180.00,0.0008
2179.00,0.0008
2178.00,0.0007
2177.00,0.0006
2176.00,0.0006
2175.00,0.0007
2174.00,0.0008
2173.00,0.0009
2172.00,0.0010
2171.00,0.0011
2170.00,0.0012
2169.00,0.0013
2168.00,0.0014
2167.00,0.0014
2166.00,0.0015
2165.00,0.0014
2164.00,0.0014
2163.00,0.0014
2162.00,0.0013
2161.00,0.0009
2160.00,0.0002
2159.00,-0.0005
2158.00,-0.0010
2157.00,-0.0012
2156.00,-0.0011
2155.00,-0.0009
2154.00,-0.0008
2153.00,-0.0006
2152.00,-0.0004
2151.00,-0.0003
2150.00,-0.0002
2149.00,-0.0002
2148.00,-0.0002
2147.00,-0.0003
2146.00,-0.0003
2145.00,-0.0004
2144.00,-0.0004
2143.00,-0.0004
2142.00,-0.0003
2141.00,-0.0003
2140.00,-0.0002
2139.00,-0.0002
2138.00,-0.0003
2137.00,-0.0004
2136.00,-0.0005
2135.00,-0.0006
2134.00,-0.0007
2133.00,-0.0007
2132.00,-0.0006
2131.00,-0.0005
2130.00,-0.0003
2129.00,-0.0001
2128.00,-0.0000
2127.00,0.0001
2126.00,0.0001
2125.00,0.0001
2124.00,0.0001
2123.00,0.0002
2122.00,0.0003
2121.00,0.0003
2120.00,0.0003
2119.00,0.0003
2118.00,0.0003
2117.00,0.0003
2116.00,0.0004
2115.00,0.0005
2114.00,0.0005
2113.00,0.0005
2112.00,0.0005
2111.00,0.0005
2110.00,0.0005
2109.00,0.0006
2108.00,0.0006
2107.00,0.0006
2106.00,0.0006
2105.00,0.0005
2104.00,0.0006
2103.00,0.0006
2102.00,0.0006
2101.00,0.0007
2100.00,0.0007
2099.00,0.0006
2098.00,0.0005
2097.00,0.0004
2096.00,0.0003
2095.00,0.0002
2094.00,0.0003
2093.00,0.0004
2092.00,0.0004
2091.00,0.0005
2090.00,0.0005
2089.00,0.0005
2088.00,0.0005
2087.00,0.0005
2086.00,0.0006
2085.00,0.0007
2084.00,0.0008
2083.00,0.0008
2082.00,0.0008
2081.00,0.0008
2080.00,0.0008
2079.00,0.0007
2078.00,0.0007
2077.00,0.0006
2076.00,0.0007
2075.00,0.0007
2074.00,0.0008
2073.00,0.0008
2072.00,0.0008
2071.00,0.0007
2070.00,0.0007
2069.00,0.0007
2068.00,0.0006
2067.00,0.0005
2066.00,0.0005
2065.00,0.0005
2064.00,0.0005
2063.00,0.0005
2062.00,0.0005
2061.00,0.0005
2060.00,0.0005
2059.00,0.0006
2058.00,0.0007
2057.00,0.0006
2056.00,0.0006
2055.00,0.0005
2054.00,0.0006
2053.00,0.0007
2052.00,0.0010
2051.00,0.0010
2050.00,0.0010
2049.00,0.0008
2048.00,0.0006
2047.00,0.0005
2046.00,0.0005
2045.00,0.0006
2044.00,0.0006
2043.00,0.0006
2042.00,0.0006
2041.00,0.0007
2040.00,0.0007
2039.00,0.0007
2038.00,0.0007
2037.00,0.0006
2036.00,0.0005
2035.00,0.0003
2034.00,0.0002
2033.00,0.0001
2032.00,0.0001
2031.00,0.0002
2030.00,0.0002
2029.00,0.0003
2028.00,0.0003
2027.00,0.0003
2026.00,0.0002
2025.00,0.0002
2024.00,0.0002
2023.00,0.0003
2022.00,0.0005
2021.00,0.0007
2020.00,0.0008
2019.00,0.0007
2018.00,0.0005
2017.00,0.0004
2016.00,0.0004
2015.00,0.0004
2014.00,0.0003
2013.00,0.0002
2012.00,0.0000
2011.00,0.0000
2010.00,0.0001
2009.00,0.0000
2008.00,-0.0001
2007.00,-0.0002
2006.00,-0.0003
2005.00,-0.0003
2004.00,-0.0003
2003.00,-0.0003
2002.00,-0.0002
2001.00,-0.0001
2000.00,0.0001
1999.00,0.0003
1998.00,0.0004
1997.00,0.0005
1996.00,0.0005
1995.00,0.0005
1994.00,0.0005
1993.00,0.0005
1992.00,0.0005
1991.00,0.0006
1990.00,0.0007
1989.00,0.0007
1988.00,0.0008
1987.00,0.0009
1986.00,0.0009
1985.00,0.0010
1984.00,0.0010
1983.00,0.0010
1982.00,0.0011
1981.00,0.0011
1980.00,0.0010
1979.00,0.0008
1978.00,0.0005
1977.00,0.0003
1976.00,0.0003
1975.00,0.0002
1974.00,0.0002
1973.00,0.0001
1972.00,-0.0001
1971.00,-0.0002
1970.00,-0.0003
1969.00,-0.0002
1968.00,0.0000
1967.00,0.0002
1966.00,0.0002
1965.00,0.0003
1964.00,0.0003
1963.00,0.0003
1962.00,0.0003
1961.00,0.0003
1960.00,0.0003
1959.00,0.0003
1958.00,0.0004
1957.00,0.0005
1956.00,0.0006
1955.00,0.0007
1954.00,0.0008
1953.00,0.0008
1952.00,0.0009
1951.00,0.0010
1950.00,0.0011
1949.00,0.0012
1948.00,0.0013
1947.00,0.0014
1946.00,0.0014
1945.00,0.0014
1944.00,0.0014
1943.00,0.0014
1942.00,0.0014
1941.00,0.0014
1940.00,0.0013
1939.00,0.0013
1938.00,0.0012
1937.00,0.0012
1936.00,0.0011
1935.00,0.0010
1934.00,0.0010
1933.00,0.0009
1932.00,0.0009
1931.00,0.0008
1930.00,0.0008
1929.00,0.0007
1928.00,0.0006
1927.00,0.0006
1926.00,0.0005
1925.00,0.0005
1924.00,0.0005
1923.00,0.0005
1922.00,0.0005
1921.00,0.0006
1920.00,0.0006
1919.00,0.0006
1918.00,0.0005
1917.00,0.0005
1916.00,0.0005
1915.00,0.0005
1914.00,0.0005
1913.00,0.0005
1912.00,0.0004
1911.00,0.0004
1910.00,0.0005
1909.00,0.0005
1908.00,0.0006
1907.00,0.0006
1906.00,0.0005
1905.00,0.0005
1904.00,0.0005
1903.00,0.0005
1902.00,0.0005
1901.00,0.0005
1900.00,0.0006
1899.00,0.0006
1898.00,0.0006
1897.00,0.0006
1896.00,0.0006
1895.00,0.0007
1894.00,0.0008
1893.00,0.0008
1892.00,0.0009
1891.00,0.0010
1890.00,0.0010
1889.00,0.0011
1888.00,0.0012
1887.00,0.0012
1886.00,0.0012
1885.00,0.0012
1884.00,0.0012
1883.00,0.0012
1882.00,0.0013
1881.00,0.0013
1880.00,0.0014
1879.00,0.0014
1878.00,0.0014
1877.00,0.0014
1876.00,0.0014
1875.00,0.0014
1874.00,0.0014
1873.00,0.0014
1872.00,0.0014
1871.00,0.0014
1870.00,0.0014
1869.00,0.0014
1868.00,0.0014
1867.00,0.0014
1866.00,0.0014
1865.00,0.0014
1864.00,0.0014
1863.00,0.0014
1862.00,0.0013
1861.00,0.0013
1860.00,0.0012
1859.00,0.0011
1858.00,0.0010
1857.00,0.0010
1856.00,0.0009
1855.00,0.0009
1854.00,0.0008
1853.00,0.0008
1852.00,0.0007
1851.00,0.0007
1850.00,0.0006
1849.00,0.0006
1848.00,0.0006
1847.00,0.0006
1846.00,0.0006
1845.00,0.0007
1844.00,0.0007
1843.00,0.0007
1842.00,0.0007
1841.00,0.0007
1840.00,0.0007
1839.00,0.0007
1838.00,0.0007
1837.00,0.0007
1836.00,0.0006
1835.00,0.0006
1834.00,0.0007
1833.00,0.0007
1832.00,0.0007
1831.00,0.0008
1830.00,0.0007
1829.00,0.0008
1828.00,0.0008
1827.00,0.0009
1826.00,0.0009
1825.00,0.0010
1824.00,0.0010
1823.00,0.0011
1822.00,0.0011
1821.00,0.0011
1820.00,0.0011
1819.00,0.0011
1818.00,0.0011
1817.00,0.0011
1816.00,0.0012
1815.00,0.0012
1814.00,0.0013
1813.00,0.0014
1812.00,0.0015
1811.00,0.0015
1810.00,0.0016
1809.00,0.0016
1808.00,0.0017
1807.00,0.0018
1806.00,0.0018
1805.00,0.0019
1804.00,0.0020
1803.00,0.0020
1802.00,0.0020
1801.00,0.0020
1800.00,0.0020
1799.00,0.0020
1798.00,0.0019
1797.00,0.0019
1796.00,0.0019
1795.00,0.0018
1794.00,0.0017
1793.00,0.0016
1792.00,0.0016
1791.00,0.0015
1790.00,0.0015
1789.00,0.0014
1788.00,0.0014
1787.00,0.0014
1786.00,0.0014
1785.00,0.0014
1784.00,0.0014
1783.00,0.0014
1782.00,0.0014
1781.00,0.0014
1780.00,0.0015
1779.00,0.0015
1778.00,0.0015
1777.00,0.0015
1776.00,0.0015
1775.00,0.0016
1774.00,0.0016
1773.00,0.0016
1772.00,0.0016
1771.00,0.0016
1770.00,0.0017
1769.00,0.0017
1768.00,0.0017
1767.00,0.0017
1766.00,0.0017
1765.00,0.0018
1764.00,0.0018
1763.00,0.0019
1762.00,0.0020
1761.00,0.0020
1760.00,0.0021
1759.00,0.0021
1758.00,0.0022
1757.00,0.0023
1756.00,0.0025
1755.00,0.0026
1754.00,0.0027
1753.00,0.0028
1752.00,0.0030
1751.00,0.0032
1750.00,0.0033
1749.00,0.0035
1748.00,0.0036
1747.00,0.0037
1746.00,0.0039
1745.00,0.0040
1744.00,0.0041
1743.00,0.0042
1742.00,0.0043
1741.00,0.0043
1740.00,0.0044
1739.00,0.0044
1738.00,0.0044
1737.00,0.0044
1736.00,0.0044
1735.00,0.0043
1734.00,0.0042
1733.00,0.0041
1732.00,0.0040
1731.00,0.0039
1730.00,0.0039
1729.00,0.0038
1728.00,0.0038
1727.00,0.0037
1726.00,0.0036
1725.00,0.0035
1724.00,0.0034
1723.00,0.0034
1722.00,0.0033
1721.00,0.0032
1720.00,0.0032
1719.00,0.0031
1718.00,0.0031
1717.00,0.0030
1716.00,0.0029
1715.00,0.0029
1714.00,0.0029
1713.00,0.0029
1712.00,0.0029
1711.00,0.0029
1710.00,0.0028
1709.00,0.0028
1708.00,0.0028
1707.00,0.0028
1706.00,0.0027
1705.00,0.0027
1704.00,0.0027
1703.00,0.0027
1702.00,0.0027
1701.00,0.0026
1700.00,0.0026
1699.00,0.0026
1698.00,0.0026
1697.00,0.0026
1696.00,0.0026
1695.00,0.0026
1694.00,0.0027
1693.00,0.0027
1692.00,0.0028
1691.00,0.0028
1690.00,0.0029
1689.00,0.0029
1688.00,0.0030
1687.00,0.0031
1686.00,0.0031
1685.00,0.0032
1684.00,0.0033
1683.00,0.0033
1682.00,0.0033
1681.00,0.0033
1680.00,0.0034
1679.00,0.0034
1678.00,0.0035
1677.00,0.0035
1676.00,0.0036
1675.00,0.0036
1674.00,0.0036
1673.00,0.0036
1672.00,0.0036
1671.00,0.0036
1670.00,0.0036
1669.00,0.0036
1668.00,0.0037
1667.00,0.0037
1666.00,0.0037
1665.00,0.0037
1664.00,0.0037
1663.00,0.0036
1662.00,0.0036
1661.00,0.0036
1660.00,0.0035
1659.00,0.0035
1658.00,0.0035
1657.00,0.0035
1656.00,0.0035
1655.00,0.0035
1654.00,0.0034
1653.00,0.0033
1652.00,0.0032
1651.00,0.0032
1650.00,0.0032
1649.00,0.0032
1648.00,0.0031
1647.00,0.0031
1646.00,0.0030
1645.00,0.0030
1644.00,0.0029
1643.00,0.0029
1642.00,0.0029
1641.00,0.0028
1640.00,0.0028
1639.00,0.0028
1638.00,0.0028
1637.00,0.0028
1636.00,0.0028
1635.00,0.0028
1634.00,0.0027
1633.00,0.0027
1632.00,0.0027
1631.00,0.0027
1630.00,0.0027
1629.00,0.0027
1628.00,0.0027
1627.00,0.0027
1626.00,0.0027
1625.00,0.0026
1624.00,0.0026
1623.00,0.0026
1622.00,0.0026
1621.00,0.0026
1620.00,0.0026
1619.00,0.0027
1618.00,0.0027
1617.00,0.0027
1616.00,0.0027
1615.00,0.0028
1614.00,0.0029
1613.00,0.0030
1612.00,0.0032
1611.00,0.0035
1610.00,0.0039
1609.00,0.0043
1608.00,0.0050
1607.00,0.0058
1606.00,0.0068
1605.00,0.0080
1604.00,0.0092
1603.00,0.0103
1602.00,0.0111
1601.00,0.0115
1600.00,0.0113
1599.00,0.0106
1598.00,0.0096
1597.00,0.0085
1596.00,0.0075
1595.00,0.0066
1594.00,0.0058
1593.00,0.0053
1592.00,0.0049
1591.00,0.0045
1590.00,0.0042
1589.00,0.0041
1588.00,0.0041
1587.00,0.0042
1586.00,0.0046
1585.00,0.0049
1584.00,0.0053
1583.00,0.0054
1582.00,0.0053
1581.00,0.0049
1580.00,0.0044
1579.00,0.0039
1578.00,0.0035
1577.00,0.0032
1576.00,0.0029
1575.00,0.0027
1574.00,0.0026
1573.00,0.0025
1572.00,0.0024
1571.00,0.0023
1570.00,0.0022
1569.00,0.0022
1568.00,0.0021
1567.00,0.0021
1566.00,0.0021
1565.00,0.0021
1564.00,0.0021
1563.00,0.0021
1562.00,0.0021
1561.00,0.0021
1560.00,0.0021
1559.00,0.0021
1558.00,0.0021
1557.00,0.0021
1556.00,0.0021
1555.00,0.0021
1554.00,0.0022
1553.00,0.0022
1552.00,0.0023
1551.00,0.0023
1550.00,0.0023
1549.00,0.0024
1548.00,0.0024
1547.00,0.0025
1546.00,0.0025
1545.00,0.0026
1544.00,0.0026
1543.00,0.0027
1542.00,0.0027
1541.00,0.0026
1540.00,0.0026
1539.00,0.0025
1538.00,0.0025
1537.00,0.0025
1536.00,0.0024
1535.00,0.0024
1534.00,0.0023
1533.00,0.0022
1532.00,0.0022
1531.00,0.0021
1530.00,0.0021
1529.00,0.0020
1528.00,0.0020
1527.00,0.0020
1526.00,0.0020
1525.00,0.0019
1524.00,0.0019
1523.00,0.0019
1522.00,0.0019
1521.00,0.0019
1520.00,0.0019
1519.00,0.0019
1518.00,0.0019
1517.00,0.0019
1516.00,0.0020
1515.00,0.0020
1514.00,0.0020
1513.00,0.0021
1512.00,0.0021
1511.00,0.0021
1510.00,0.0022
1509.00,0.0022
1508.00,0.0023
1507.00,0.0024
1506.00,0.0025
1505.00,0.0027
1504.00,0.0030
1503.00,0.0033
1502.00,0.0037
1501.00,0.0042
1500.00,0.0051
1499.00,0.0064
1498.00,0.0084
1497.00,0.0115
1496.00,0.0157
1495.00,0.0203
1494.00,0.0243
1493.00,0.0269
1492.00,0.0274
1491.00,0.0254
1490.00,0.0217
1489.00,0.0176
1488.00,0.0140
1487.00,0.0114
1486.00,0.0095
1485.00,0.0080
1484.00,0.0069
1483.00,0.0060
1482.00,0.0053
1481.00,0.0048
1480.00,0.0044
1479.00,0.0041
1478.00,0.0039
1477.00,0.0037
1476.00,0.0036
1475.00,0.0036
1474.00,0.0035
1473.00,0.0035
1472.00,0.0035
1471.00,0.0036
1470.00,0.0038
1469.00,0.0039
1468.00,0.0040
1467.00,0.0041
1466.00,0.0042
1465.00,0.0043
1464.00,0.0044
1463.00,0.0046
1462.00,0.0049
1461.00,0.0053
1460.00,0.0058
1459.00,0.0068
1458.00,0.0084
1457.00,0.0113
1456.00,0.0152
1455.00,0.0194
1454.00,0.0233
1453.00,0.0265
1452.00,0.0282
1451.00,0.0283
1450.00,0.0270
1449.00,0.0250
1448.00,0.0228
1447.00,0.0209
1446.00,0.0193
1445.00,0.0179
1444.00,0.0167
1443.00,0.0154
1442.00,0.0142
1441.00,0.0132
1440.00,0.0123
1439.00,0.0115
1438.00,0.0107
1437.00,0.0097
1436.00,0.0088
1435.00,0.0080
1434.00,0.0073
1433.00,0.0068
1432.00,0.0063
1431.00,0.0059
1430.00,0.0055
1429.00,0.0052
1428.00,0.0049
1427.00,0.0047
1426.00,0.0046
1425.00,0.0044
1424.00,0.0043
1423.00,0.0042
1422.00,0.0042
1421.00,0.0041
1420.00,0.0041
1419.00,0.0040
1418.00,0.0038
1417.00,0.0037
1416.00,0.0037
1415.00,0.0036
1414.00,0.0035
1413.00,0.0035
1412.00,0.0034
1411.00,0.0034
1410.00,0.0033
1409.00,0.0033
1408.00,0.0032
1407.00,0.0032
1406.00,0.0031
1405.00,0.0031
1404.00,0.0030
1403.00,0.0029
1402.00,0.0029
1401.00,0.0028
1400.00,0.0027
1399.00,0.0027
1398.00,0.0027
1397.00,0.0027
1396.00,0.0027
1395.00,0.0027
1394.00,0.0028
1393.00,0.0029
1392.00,0.0030
1391.00,0.0032
1390.00,0.0033
1389.00,0.0035
1388.00,0.0037
1387.00,0.0040
1386.00,0.0042
1385.00,0.0044
1384.00,0.0046
1383.00,0.0047
1382.00,0.0049
1381.00,0.0051
1380.00,0.0053
1379.00,0.0055
1378.00,0.0058
1377.00,0.0060
1376.00,0.0062
1375.00,0.0064
1374.00,0.0065
1373.00,0.0066
1372.00,0.0067
1371.00,0.0067
1370.00,0.0068
1369.00,0.0068
1368.00,0.0068
1367.00,0.0068
1366.00,0.0068
1365.00,0.0068
1364.00,0.0068
1363.00,0.0067
1362.00,0.0067
1361.00,0.0066
1360.00,0.0065
1359.00,0.0065
1358.00,0.0064
1357.00,0.0063
1356.00,0.0063
1355.00,0.0062
1354.00,0.0062
1353.00,0.0062
1352.00,0.0062
1351.00,0.0062
1350.00,0.0063
1349.00,0.0063
1348.00,0.0062
1347.00,0.0062
1346.00,0.0061
1345.00,0.0061
1344.00,0.0060
1343.00,0.0059
1342.00,0.0058
1341.00,0.0057
1340.00,0.0056
1339.00,0.0056
1338.00,0.0056
1337.00,0.0056
1336.00,0.0057
1335.00,0.0058
1334.00,0.0059
1333.00,0.0060
1332.00,0.0062
1331.00,0.0063
1330.00,0.0065
1329.00,0.0066
1328.00,0.0066
1327.00,0.0066
1326.00,0.0066
1325.00,0.0065
1324.00,0.0064
1323.00,0.0064
1322.00,0.0063
1321.00,0.0063
1320.00,0.0063
1319.00,0.0063
1318.00,0.0063
1317.00,0.0064
1316.00,0.0064
1315.00,0.0065
1314.00,0.0065
1313.00,0.0066
1312.00,0.0066
1311.00,0.0066
1310.00,0.0066
1309.00,0.0065
1308.00,0.0065
1307.00,0.0064
1306.00,0.0063
1305.00,0.0062
1304.00,0.0061
1303.00,0.0061
1302.00,0.0060
1301.00,0.0059
1300.00,0.0059
1299.00,0.0059
1298.00,0.0059
1297.00,0.0059
1296.00,0.0059
1295.00,0.0059
1294.00,0.0059
1293.00,0.0059
1292.00,0.0059
1291.00,0.0059
1290.00,0.0059
1289.00,0.0058
1288.00,0.0057
1287.00,0.0057
1286.00,0.0056
1285.00,0.0056
1284.00,0.0056
1283.00,0.0055
1282.00,0.0055
1281.00,0.0055
1280.00,0.0054
1279.00,0.0054
1278.00,0.0053
1277.00,0.0052
1276.00,0.0051
1275.00,0.0050
1274.00,0.0050
1273.00,0.0049
1272.00,0.0048
1271.00,0.0047
1270.00,0.0046
1269.00,0.0045
1268.00,0.0044
1267.00,0.0043
1266.00,0.0042
1265.00,0.0042
1264.00,0.0041
1263.00,0.0041
1262.00,0.0041
1261.00,0.0040
1260.00,0.0040
1259.00,0.0040
1258.00,0.0040
1257.00,0.0040
1256.00,0.0040
1255.00,0.0040
1254.00,0.0040
1253.00,0.0040
1252.00,0.0040
1251.00,0.0041
1250.00,0.0041
1249.00,0.0041
1248.00,0.0042
1247.00,0.0042
1246.00,0.0042
1245.00,0.0043
1244.00,0.0043
1243.00,0.0043
1242.00,0.0043
1241.00,0.0043
1240.00,0.0043
1239.00,0.0042
1238.00,0.0042
1237.00,0.0042
1236.00,0.0042
1235.00,0.0042
1234.00,0.0043
1233.00,0.0043
1232.00,0.0043
1231.00,0.0044
1230.00,0.0044
1229.00,0.0044
1228.00,0.0045
1227.00,0.0045
1226.00,0.0046
1225.00,0.0046
1224.00,0.0047
1223.00,0.0047
1222.00,0.0047
1221.00,0.0048
1220.00,0.0048
1219.00,0.0048
1218.00,0.0048
1217.00,0.0048
1216.00,0.0049
1215.00,0.0049
1214.00,0.0049
1213.00,0.0049
1212.00,0.0050
1211.00,0.0050
1210.00,0.0051
1209.00,0.0052
1208.00,0.0053
1207.00,0.0054
1206.00,0.0055
1205.00,0.0056
1204.00,0.0058
1203.00,0.0059
1202.00,0.0060
1201.00,0.0061
1200.00,0.0062
1199.00,0.0063
1198.00,0.0064
1197.00,0.0065
1196.00,0.0065
1195.00,0.0065
1194.00,0.0066
1193.00,0.0066
1192.00,0.0066
1191.00,0.0066
1190.00,0.0066
1189.00,0.0067
1188.00,0.0068
1187.00,0.0069
1186.00,0.0072
1185.00,0.0074
1184.00,0.0077
1183.00,0.0080
1182.00,0.0082
1181.00,0.0082
1180.00,0.0081
1179.00,0.0078
1178.00,0.0074
1177.00,0.0070
1176.00,0.0066
1175.00,0.0062
1174.00,0.0059
1173.00,0.0057
1172.00,0.0055
1171.00,0.0054
1170.00,0.0054
1169.00,0.0053
1168.00,0.0053
1167.00,0.0052
1166.00,0.0052
1165.00,0.0051
1164.00,0.0051
1163.00,0.0051
1162.00,0.0053
1161.00,0.0054
1160.00,0.0057
1159.00,0.0061
1158.00,0.0065
1157.00,0.0070
1156.00,0.0073
1155.00,0.0076
1154.00,0.0076
1153.00,0.0074
1152.00,0.0069
1151.00,0.0064
1150.00,0.0059
1149.00,0.0054
1148.00,0.0051
1147.00,0.0048
1146.00,0.0046
1145.00,0.0045
1144.00,0.0043
1143.00,0.0042
1142.00,0.0041
1141.00,0.0040
1140.00,0.0039
1139.00,0.0039
1138.00,0.0038
1137.00,0.0038
1136.00,0.0038
1135.00,0.0038
1134.00,0.0038
1133.00,0.0038
1132.00,0.0038
1131.00,0.0038
1130.00,0.0038
1129.00,0.0038
1128.00,0.0039
1127.00,0.0039
1126.00,0.0040
1125.00,0.0041
1124.00,0.0042
1123.00,0.0042
1122.00,0.0043
1121.00,0.0044
1120.00,0.0045
1119.00,0.0047
1118.00,0.0048
1117.00,0.0050
1116.00,0.0051
1115.00,0.0052
1114.00,0.0053
1113.00,0.0054
1112.00,0.0055
1111.00,0.0055
1110.00,0.0055
1109.00,0.0055
1108.00,0.0054
1107.00,0.0054
1106.00,0.0053
1105.00,0.0053
1104.00,0.0053
1103.00,0.0053
1102.00,0.0053
1101.00,0.0054
1100.00,0.0054
1099.00,0.0054
1098.00,0.0054
1097.00,0.0054
1096.00,0.0055
1095.00,0.0056
1094.00,0.0056
1093.00,0.0056
1092.00,0.0056
1091.00,0.0056
1090.00,0.0056
1089.00,0.0057
1088.00,0.0057
1087.00,0.0059
1086.00,0.0060
1085.00,0.0061
1084.00,0.0063
1083.00,0.0065
1082.00,0.0067
1081.00,0.0069
1080.00,0.0071
1079.00,0.0073
1078.00,0.0075
1077.00,0.0078
1076.00,0.0081
1075.00,0.0084
1074.00,0.0088
1073.00,0.0092
1072.00,0.0096
1071.00,0.0099
1070.00,0.0101
1069.00,0.0102
1068.00,0.0103
1067.00,0.0102
1066.00,0.0100
1065.00,0.0097
1064.00,0.0094
1063.00,0.0090
1062.00,0.0087
1061.00,0.0084
1060.00,0.0082
1059.00,0.0079
1058.00,0.0077
1057.00,0.0075
1056.00,0.0073
1055.00,0.0072
1054.00,0.0070
1053.00,0.0069
1052.00,0.0068
1051.00,0.0067
1050.00,0.0066
1049.00,0.0066
1048.00,0.0066
1047.00,0.0066
1046.00,0.0065
1045.00,0.0065
1044.00,0.0065
1043.00,0.0065
1042.00,0.0064
1041.00,0.0065
1040.00,0.0066
1039.00,0.0068
1038.00,0.0072
1037.00,0.0078
1036.00,0.0085
1035.00,0.0096
1034.00,0.0109
1033.00,0.0124
1032.00,0.0140
1031.00,0.0156
1030.00,0.0169
1029.00,0.0178
1028.00,0.0182
1027.00,0.0180
1026.00,0.0173
1025.00,0.0162
1024.00,0.0150
1023.00,0.0139
1022.00,0.0130
1021.00,0.0122
1020.00,0.0115
1019.00,0.0109
1018.00,0.0105
1017.00,0.0101
1016.00,0.0097
1015.00,0.0093
1014.00,0.0090
1013.00,0.0087
1012.00,0.0085
1011.00,0.0083
1010.00,0.0081
1009.00,0.0081
1008.00,0.0081
1007.00,0.0081
1006.00,0.0083
1005.00,0.0084
1004.00,0.0086
1003.00,0.0086
1002.00,0.0085
1001.00,0.0082
1000.00,0.0078
999.00,0.0074
998.00,0.0071
997.00,0.0068
996.00,0.0067
995.00,0.0066
994.00,0.0065
993.00,0.0064
992.00,0.0064
991.00,0.0065
990.00,0.0066
989.00,0.0066
988.00,0.0067
987.00,0.0068
986.00,0.0069
985.00,0.0071
984.00,0.0073
983.00,0.0075
982.00,0.0076
981.00,0.0077
980.00,0.0077
979.00,0.0076
978.00,0.0075
977.00,0.0073
976.00,0.0071
975.00,0.0069
974.00,0.0067
973.00,0.0066
972.00,0.0065
971.00,0.0065
970.00,0.0066
969.00,0.0068
968.00,0.0070
967.00,0.0072
966.00,0.0073
965.00,0.0074
964.00,0.0075
963.00,0.0074
962.00,0.0072
961.00,0.0070
960.00,0.0067
959.00,0.0063
958.00,0.0060
957.00,0.0057
956.00,0.0055
955.00,0.0053
954.00,0.0052
953.00,0.0052
952.00,0.0052
951.00,0.0053
950.00,0.0054
949.00,0.0055
948.00,0.0056
947.00,0.0057
946.00,0.0058
945.00,0.0059
944.00,0.0060
943.00,0.0060
942.00,0.0060
941.00,0.0060
940.00,0.0059
939.00,0.0058
938.00,0.0057
937.00,0.0056
936.00,0.0055
935.00,0.0054
934.00,0.0052
933.00,0.0051
932.00,0.0050
931.00,0.0049
930.00,0.0049
929.00,0.0049
928.00,0.0049
927.00,0.0050
926.00,0.0051
925.00,0.0052
924.00,0.0053
923.00,0.0054
922.00,0.0055
921.00,0.0057
920.00,0.0058
919.00,0.0060
918.00,0.0063
917.00,0.0067
916.00,0.0071
915.00,0.0076
914.00,0.0082
913.00,0.0089
912.00,0.0097
911.00,0.0105
910.00,0.0113
909.00,0.0120
908.00,0.0125
907.00,0.0128
906.00,0.0129
905.00,0.0127
904.00,0.0123
903.00,0.0117
902.00,0.0109
901.00,0.0100
900.00,0.0092
899.00,0.0083
898.00,0.0076
897.00,0.0070
896.00,0.0065
895.00,0.0061
894.00,0.0058
893.00,0.0056
892.00,0.0054
891.00,0.0053
890.00,0.0052
889.00,0.0050
888.00,0.0049
887.00,0.0048
886.00,0.0047
885.00,0.0046
884.00,0.0045
883.00,0.0045
882.00,0.0045
881.00,0.0044
880.00,0.0044
879.00,0.0043
878.00,0.0042
877.00,0.0041
876.00,0.0041
875.00,0.0041
874.00,0.0041
873.00,0.0041
872.00,0.0041
871.00,0.0040
870.00,0.0040
869.00,0.0040
868.00,0.0040
867.00,0.0040
866.00,0.0040
865.00,0.0040
864.00,0.0040
863.00,0.0040
862.00,0.0040
861.00,0.0040
860.00,0.0040
859.00,0.0040
858.00,0.0041
857.00,0.0041
856.00,0.0041
855.00,0.0042
854.00,0.0043
853.00,0.0044
852.00,0.0046
851.00,0.0048
850.00,0.0051
849.00,0.0054
848.00,0.0058
847.00,0.0061
846.00,0.0065
845.00,0.0068
844.00,0.0071
843.00,0.0073
842.00,0.0074
841.00,0.0073
840.00,0.0072
839.00,0.0070
838.00,0.0067
837.00,0.0063
836.00,0.0059
835.00,0.0055
834.00,0.0051
833.00,0.0047
832.00,0.0044
831.00,0.0042
830.00,0.0040
829.00,0.0039
828.00,0.0038
827.00,0.0037
826.00,0.0037
825.00,0.0036
824.00,0.0036
823.00,0.0036
822.00,0.0036
821.00,0.0036
820.00,0.0036
819.00,0.0036
818.00,0.0036
817.00,0.0036
816.00,0.0037
815.00,0.0038
814.00,0.0038
813.00,0.0038
812.00,0.0038
811.00,0.0039
810.00,0.0039
809.00,0.0040
808.00,0.0040
807.00,0.0040
806.00,0.0040
805.00,0.0040
804.00,0.0040
803.00,0.0040
802.00,0.0041
801.00,0.0043
800.00,0.0044
799.00,0.0046
798.00,0.0048
797.00,0.0050
796.00,0.0051
795.00,0.0053
794.00,0.0056
793.00,0.0058
792.00,0.0061
791.00,0.0064
790.00,0.0067
789.00,0.0071
788.00,0.0075
787.00,0.0079
786.00,0.0084
785.00,0.0089
784.00,0.0094
783.00,0.0099
782.00,0.0105
781.00,0.0112
780.00,0.0119
779.00,0.0128
778.00,0.0138
777.00,0.0150
776.00,0.0163
775.00,0.0178
774.00,0.0193
773.00,0.0210
772.00,0.0229
771.00,0.0249
770.00,0.0269
769.00,0.0290
768.00,0.0312
767.00,0.0333
766.00,0.0353
765.00,0.0373
764.00,0.0393
763.00,0.0414
762.00,0.0436
761.00,0.0457
760.00,0.0479
759.00,0.0498
758.00,0.0515
757.00,0.0528
756.00,0.0537
755.00,0.0542
754.00,0.0543
753.00,0.0541
752.00,0.0539
751.00,0.0537
750.00,0.0536
749.00,0.0534
748.00,0.0532
747.00,0.0524
746.00,0.0510
745.00,0.0489
744.00,0.0460
743.00,0.0426
742.00,0.0390
741.00,0.0354
740.00,0.0320
739.00,0.0290
738.00,0.0262
737.00,0.0237
736.00,0.0213
735.00,0.0190
734.00,0.0167
733.00,0.0147
732.00,0.0129
731.00,0.0114
730.00,0.0103
729.00,0.0094
728.00,0.0087
727.00,0.0082
726.00,0.0078
725.00,0.0076
724.00,0.0075
723.00,0.0074
722.00,0.0074
721.00,0.0073
720.00,0.0073
719.00,0.0074
718.00,0.0075
717.00,0.0078
716.00,0.0081
715.00,0.0087
714.00,0.0095
713.00,0.0107
712.00,0.0124
711.00,0.0148
710.00,0.0180
709.00,0.0222
708.00,0.0277
707.00,0.0345
706.00,0.0427
705.00,0.0524
704.00,0.0634
703.00,0.0758
702.00,0.0892
701.00,0.1034
700.00,0.1178
699.00,0.1320
698.00,0.1456
697.00,0.1574
696.00,0.1659
695.00,0.1692
694.00,0.1661
693.00,0.1563
692.00,0.1415
691.00,0.1245
690.00,0.1080
689.00,0.0934
688.00,0.0813
687.00,0.0716
686.00,0.0639
685.00,0.0577
684.00,0.0525
683.00,0.0482
682.00,0.0444
681.00,0.0412
680.00,0.0384
679.00,0.0360
678.00,0.0340
677.00,0.0323
676.00,0.0309
675.00,0.0296
674.00,0.0285
673.00,0.0275
672.00,0.0266
671.00,0.0259
670.00,0.0251
669.00,0.0242
668.00,0.0231
667.00,0.0221
666.00,0.0213
665.00,0.0206
664.00,0.0200
663.00,0.0193
662.00,0.0186
661.00,0.0179
660.00,0.0172
659.00,0.0166
658.00,0.0160
657.00,0.0155
656.00,0.0149
655.00,0.0144
654.00,0.0139
653.00,0.0134
652.00,0.0129
651.00,0.0124
650.00,0.0120
649.00,0.0117
648.00,0.0114
647.00,0.0112
646.00,0.0110
645.00,0.0108
644.00,0.0107
643.00,0.0105
642.00,0.0105
641.00,0.0105
640.00,0.0105
639.00,0.0105
638.00,0.0106
637.00,0.0107
636.00,0.0109
635.00,0.0112
634.00,0.0115
633.00,0.0118
632.00,0.0120
631.00,0.0122
630.00,0.0124
629.00,0.0125
628.00,0.0127
627.00,0.0128
626.00,0.0129
625.00,0.0130
624.00,0.0131
623.00,0.0133
622.00,0.0135
621.00,0.0137
620.00,0.0138
619.00,0.0137
618.00,0.0134
617.00,0.0131
616.00,0.0128
615.00,0.0125
614.00,0.0122
613.00,0.0119
612.00,0.0117
611.00,0.0116
610.00,0.0114
609.00,0.0114
608.00,0.0113
607.00,0.0111
606.00,0.0110
605.00,0.0110
604.00,0.0110
603.00,0.0111
602.00,0.0112
601.00,0.0113
600.00,0.0114
599.00,0.0115
598.00,0.0116
597.00,0.0117
596.00,0.0119
595.00,0.0120
594.00,0.0122
593.00,0.0123
592.00,0.0124
591.00,0.0126
590.00,0.0128
589.00,0.0129
588.00,0.0131
587.00,0.0133
586.00,0.0134
585.00,0.0135
584.00,0.0137
583.00,0.0140
582.00,0.0144
581.00,0.0149
580.00,0.0154
579.00,0.0160
578.00,0.0166
577.00,0.0173
576.00,0.0181
575.00,0.0188
574.00,0.0196
573.00,0.0204
572.00,0.0212
571.00,0.0219
570.00,0.0227
569.00,0.0234
568.00,0.0241
567.00,0.0247
566.00,0.0253
565.00,0.0260
564.00,0.0268
563.00,0.0276
562.00,0.0284
561.00,0.0293
560.00,0.0301
559.00,0.0309
558.00,0.0317
557.00,0.0325
556.00,0.0333
555.00,0.0341
554.00,0.0350
553.00,0.0360
552.00,0.0370
551.00,0.0382
550.00,0.0394
549.00,0.0406
548.00,0.0419
547.00,0.0434
546.00,0.0450
545.00,0.0470
544.00,0.0491
543.00,0.0511
542.00,0.0531
541.00,0.0548
540.00,0.0564
539.00,0.0575
538.00,0.0581
537.00,0.0579
536.00,0.0571
535.00,0.0556
534.00,0.0534
533.00,0.0509
532.00,0.0483
531.00,0.0455
530.00,0.0427
529.00,0.0401
528.00,0.0376
527.00,0.0353
526.00,0.0331
525.00,0.0310
524.00,0.0292
523.00,0.0276
522.00,0.0262
521.00,0.0251
520.00,0.0241
519.00,0.0233
518.00,0.0225
517.00,0.0217
516.00,0.0211
515.00,0.0204
514.00,0.0197
513.00,0.0191
512.00,0.0187
511.00,0.0182
510.00,0.0178
509.00,0.0173
508.00,0.0169
507.00,0.0165
506.00,0.0161
505.00,0.0157
504.00,0.0154
503.00,0.0150
502.00,0.0146
501.00,0.0142
500.00,0.0138
499.00,0.0136
498.00,0.0134
497.00,0.0132
496.00,0.0130
495.00,0.0128
494.00,0.0126
493.00,0.0125
492.00,0.0125
491.00,0.0124
490.00,0.0123
489.00,0.0121
488.00,0.0118
487.00,0.0116
486.00,0.0114
485.00,0.0112
484.00,0.0112
483.00,0.0112
482.00,0.0112
481.00,0.0113
480.00,0.0112
479.00,0.0111
478.00,0.0111
477.00,0.0111
476.00,0.0109
475.00,0.0107
474.00,0.0103
473.00,0.0100
472.00,0.0099
471.00,0.0099
470.00,0.0099
469.00,0.0099
468.00,0.0099
467.00,0.0098
466.00,0.0097
465.00,0.0097
464.00,0.0098
463.00,0.0100
462.00,0.0100
461.00,0.0097
460.00,0.0092
459.00,0.0087
458.00,0.0085
457.00,0.0085
456.00,0.0085
455.00,0.0084
454.00,0.0084
453.00,0.0085
452.00,0.0086
451.00,0.0088
450.00,0.0090
449.00,0.0091
448.00,0.0092
447.00,0.0091
446.00,0.0091
445.00,0.0091
444.00,0.0092
443.00,0.0091
442.00,0.0090
441.00,0.0088
440.00,0.0087
439.00,0.0088
438.00,0.0088
437.00,0.0087
436.00,0.0084
435.00,0.0081
434.00,0.0080
433.00,0.0082
432.00,0.0084
431.00,0.0083
430.00,0.0081
429.00,0.0079
428.00,0.0078
427.00,0.0078
426.00,0.0077
425.00,0.0077
424.00,0.0078
423.00,0.0079
422.00,0.0078
421.00,0.0075
420.00,0.0070
419.00,0.0065
418.00,0.0062
417.00,0.0062
416.00,0.0062
415.00,0.0063
414.00,0.0065
413.00,0.0068
412.00,0.0071
411.00,0.0076
410.00,0.0083
409.00,0.0093
408.00,0.0104
407.00,0.0110
406.00,0.0107
405.00,0.0096
404.00,0.0080
403.00,0.0064
402.00,0.0054
401.00,0.0051
400.00,0.0051
