Created as New Dataset,Sample 847 By YargerLab Date Saturday, April 18 2026
cm-1,A
4000.00,0.0101
3999.00,0.0101
3998.00,0.0101
3997.00,0.0101
3996.00,0.0101
3995.00,0.0102
3994.00,0.0102
3993.00,0.0102
3992.00,0.0103
3991.00,0.0103
3990.00,0.0103
3989.00,0.0103
3988.00,0.0103
3987.00,0.0103
3986.00,0.0103
3985.00,0.0103
3984.00,0.0103
3983.00,0.0103
3982.00,0.0103
3981.00,0.0102
3980.00,0.0102
3979.00,0.0102
3978.00,0.0102
3977.00,0.0101
3976.00,0.0101
3975.00,0.0101
3974.00,0.0101
3973.00,0.0101
3972.00,0.0101
3971.00,0.0101
3970.00,0.0100
3969.00,0.0100
3968.00,0.0100
3967.00,0.0100
3966.00,0.0100
3965.00,0.0100
3964.00,0.0100
3963.00,0.0100
3962.00,0.0099
3961.00,0.0099
3960.00,0.0100
3959.00,0.0100
3958.00,0.0100
3957.00,0.0100
3956.00,0.0099
3955.00,0.0099
3954.00,0.0099
3953.00,0.0099
3952.00,0.0099
3951.00,0.0099
3950.00,0.0099
3949.00,0.0099
3948.00,0.0099
3947.00,0.0099
3946.00,0.0099
3945.00,0.0099
3944.00,0.0099
3943.00,0.0099
3942.00,0.0099
3941.00,0.0099
3940.00,0.0099
3939.00,0.0099
3938.00,0.0099
3937.00,0.0099
3936.00,0.0099
3935.00,0.0099
3934.00,0.0099
3933.00,0.0099
3932.00,0.0099
3931.00,0.0099
3930.00,0.0098
3929.00,0.0098
3928.00,0.0098
3927.00,0.0099
3926.00,0.0099
3925.00,0.0099
3924.00,0.0099
3923.00,0.0099
3922.00,0.0099
3921.00,0.0099
3920.00,0.0098
3919.00,0.0098
3918.00,0.0098
3917.00,0.0098
3916.00,0.0098
3915.00,0.0098
3914.00,0.0098
3913.00,0.0098
3912.00,0.0098
3911.00,0.0098
3910.00,0.0098
3909.00,0.0098
3908.00,0.0098
3907.00,0.0098
3906.00,0.0098
3905.00,0.0098
3904.00,0.0098
3903.00,0.0099
3902.00,0.0099
3901.00,0.0099
3900.00,0.0099
3899.00,0.0098
3898.00,0.0098
3897.00,0.0098
3896.00,0.0097
3895.00,0.0097
3894.00,0.0097
3893.00,0.0098
3892.00,0.0098
3891.00,0.0098
3890.00,0.0098
3889.00,0.0098
3888.00,0.0098
3887.00,0.0098
3886.00,0.0097
3885.00,0.0097
3884.00,0.0097
3883.00,0.0097
3882.00,0.0097
3881.00,0.0097
3880.00,0.0097
3879.00,0.0097
3878.00,0.0097
3877.00,0.0097
3876.00,0.0096
3875.00,0.0096
3874.00,0.0096
3873.00,0.0096
3872.00,0.0097
3871.00,0.0097
3870.00,0.0096
3869.00,0.0096
3868.00,0.0096
3867.00,0.0096
3866.00,0.0096
3865.00,0.0096
3864.00,0.0096
3863.00,0.0096
3862.00,0.0096
3861.00,0.0096
3860.00,0.0096
3859.00,0.0096
3858.00,0.0096
3857.00,0.0096
3856.00,0.0096
3855.00,0.0096
3854.00,0.0096
3853.00,0.0097
3852.00,0.0097
3851.00,0.0097
3850.00,0.0097
3849.00,0.0097
3848.00,0.0097
3847.00,0.0097
3846.00,0.0097
3845.00,0.0097
3844.00,0.0097
3843.00,0.0097
3842.00,0.0097
3841.00,0.0097
3840.00,0.0096
3839.00,0.0096
3838.00,0.0096
3837.00,0.0096
3836.00,0.0096
3835.00,0.0096
3834.00,0.0096
3833.00,0.0096
3832.00,0.0096
3831.00,0.0096
3830.00,0.0096
3829.00,0.0096
3828.00,0.0096
3827.00,0.0096
3826.00,0.0096
3825.00,0.0095
3824.00,0.0095
3823.00,0.0095
3822.00,0.0094
3821.00,0.0094
3820.00,0.0094
3819.00,0.0094
3818.00,0.0095
3817.00,0.0095
3816.00,0.0095
3815.00,0.0095
3814.00,0.0095
3813.00,0.0095
3812.00,0.0095
3811.00,0.0095
3810.00,0.0095
3809.00,0.0095
3808.00,0.0095
3807.00,0.0095
3806.00,0.0095
3805.00,0.0095
3804.00,0.0094
3803.00,0.0094
3802.00,0.0094
3801.00,0.0095
3800.00,0.0095
3799.00,0.0095
3798.00,0.0095
3797.00,0.0095
3796.00,0.0095
3795.00,0.0095
3794.00,0.0095
3793.00,0.0095
3792.00,0.0095
3791.00,0.0095
3790.00,0.0095
3789.00,0.0095
3788.00,0.0095
3787.00,0.0095
3786.00,0.0095
3785.00,0.0095
3784.00,0.0095
3783.00,0.0095
3782.00,0.0095
3781.00,0.0095
3780.00,0.0095
3779.00,0.0095
3778.00,0.0094
3777.00,0.0094
3776.00,0.0094
3775.00,0.0094
3774.00,0.0094
3773.00,0.0094
3772.00,0.0093
3771.00,0.0093
3770.00,0.0093
3769.00,0.0093
3768.00,0.0093
3767.00,0.0093
3766.00,0.0093
3765.00,0.0092
3764.00,0.0092
3763.00,0.0092
3762.00,0.0092
3761.00,0.0092
3760.00,0.0092
3759.00,0.0092
3758.00,0.0092
3757.00,0.0092
3756.00,0.0091
3755.00,0.0091
3754.00,0.0091
3753.00,0.0091
3752.00,0.0091
3751.00,0.0091
3750.00,0.0091
3749.00,0.0091
3748.00,0.0090
3747.00,0.0090
3746.00,0.0090
3745.00,0.0090
3744.00,0.0090
3743.00,0.0090
3742.00,0.0090
3741.00,0.0089
3740.00,0.0089
3739.00,0.0089
3738.00,0.0089
3737.00,0.0089
3736.00,0.0089
3735.00,0.0089
3734.00,0.0089
3733.00,0.0089
3732.00,0.0089
3731.00,0.0089
3730.00,0.0089
3729.00,0.0089
3728.00,0.0089
3727.00,0.0088
3726.00,0.0088
3725.00,0.0089
3724.00,0.0089
3723.00,0.0089
3722.00,0.0089
3721.00,0.0089
3720.00,0.0089
3719.00,0.0089
3718.00,0.0089
3717.00,0.0089
3716.00,0.0089
3715.00,0.0089
3714.00,0.0089
3713.00,0.0088
3712.00,0.0088
3711.00,0.0088
3710.00,0.0088
3709.00,0.0088
3708.00,0.0088
3707.00,0.0088
3706.00,0.0088
3705.00,0.0088
3704.00,0.0088
3703.00,0.0087
3702.00,0.0087
3701.00,0.0087
3700.00,0.0087
3699.00,0.0087
3698.00,0.0087
3697.00,0.0087
3696.00,0.0087
3695.00,0.0087
3694.00,0.0088
3693.00,0.0088
3692.00,0.0087
3691.00,0.0087
3690.00,0.0087
3689.00,0.0087
3688.00,0.0087
3687.00,0.0087
3686.00,0.0087
3685.00,0.0087
3684.00,0.0087
3683.00,0.0088
3682.00,0.0088
3681.00,0.0088
3680.00,0.0088
3679.00,0.0087
3678.00,0.0087
3677.00,0.0087
3676.00,0.0086
3675.00,0.0086
3674.00,0.0086
3673.00,0.0086
3672.00,0.0086
3671.00,0.0087
3670.00,0.0087
3669.00,0.0087
3668.00,0.0087
3667.00,0.0087
3666.00,0.0087
3665.00,0.0086
3664.00,0.0086
3663.00,0.0086
3662.00,0.0086
3661.00,0.0087
3660.00,0.0087
3659.00,0.0087
3658.00,0.0087
3657.00,0.0087
3656.00,0.0087
3655.00,0.0087
3654.00,0.0087
3653.00,0.0087
3652.00,0.0087
3651.00,0.0087
3650.00,0.0087
3649.00,0.0087
3648.00,0.0087
3647.00,0.0087
3646.00,0.0087
3645.00,0.0087
3644.00,0.0087
3643.00,0.0087
3642.00,0.0087
3641.00,0.0087
3640.00,0.0087
3639.00,0.0087
3638.00,0.0086
3637.00,0.0086
3636.00,0.0086
3635.00,0.0086
3634.00,0.0086
3633.00,0.0087
3632.00,0.0087
3631.00,0.0087
3630.00,0.0088
3629.00,0.0088
3628.00,0.0087
3627.00,0.0087
3626.00,0.0087
3625.00,0.0088
3624.00,0.0088
3623.00,0.0088
3622.00,0.0088
3621.00,0.0088
3620.00,0.0088
3619.00,0.0088
3618.00,0.0087
3617.00,0.0087
3616.00,0.0087
3615.00,0.0087
3614.00,0.0088
3613.00,0.0088
3612.00,0.0088
3611.00,0.0088
3610.00,0.0088
3609.00,0.0087
3608.00,0.0087
3607.00,0.0087
3606.00,0.0087
3605.00,0.0087
3604.00,0.0087
3603.00,0.0087
3602.00,0.0087
3601.00,0.0087
3600.00,0.0087
3599.00,0.0087
3598.00,0.0086
3597.00,0.0086
3596.00,0.0086
3595.00,0.0086
3594.00,0.0086
3593.00,0.0086
3592.00,0.0086
3591.00,0.0086
3590.00,0.0086
3589.00,0.0086
3588.00,0.0086
3587.00,0.0086
3586.00,0.0086
3585.00,0.0086
3584.00,0.0086
3583.00,0.0086
3582.00,0.0087
3581.00,0.0087
3580.00,0.0087
3579.00,0.0087
3578.00,0.0087
3577.00,0.0087
3576.00,0.0087
3575.00,0.0087
3574.00,0.0087
3573.00,0.0087
3572.00,0.0087
3571.00,0.0087
3570.00,0.0087
3569.00,0.0088
3568.00,0.0088
3567.00,0.0088
3566.00,0.0088
3565.00,0.0088
3564.00,0.0087
3563.00,0.0087
3562.00,0.0087
3561.00,0.0088
3560.00,0.0088
3559.00,0.0088
3558.00,0.0088
3557.00,0.0088
3556.00,0.0088
3555.00,0.0088
3554.00,0.0088
3553.00,0.0088
3552.00,0.0088
3551.00,0.0088
3550.00,0.0088
3549.00,0.0088
3548.00,0.0088
3547.00,0.0088
3546.00,0.0088
3545.00,0.0089
3544.00,0.0089
3543.00,0.0089
3542.00,0.0089
3541.00,0.0089
3540.00,0.0089
3539.00,0.0089
3538.00,0.0089
3537.00,0.0089
3536.00,0.0089
3535.00,0.0090
3534.00,0.0090
3533.00,0.0090
3532.00,0.0090
3531.00,0.0090
3530.00,0.0090
3529.00,0.0090
3528.00,0.0090
3527.00,0.0090
3526.00,0.0090
3525.00,0.0090
3524.00,0.0090
3523.00,0.0090
3522.00,0.0090
3521.00,0.0090
3520.00,0.0090
3519.00,0.0090
3518.00,0.0090
3517.00,0.0090
3516.00,0.0090
3515.00,0.0091
3514.00,0.0091
3513.00,0.0091
3512.00,0.0091
3511.00,0.0092
3510.00,0.0092
3509.00,0.0092
3508.00,0.0092
3507.00,0.0091
3506.00,0.0091
3505.00,0.0091
3504.00,0.0091
3503.00,0.0091
3502.00,0.0092
3501.00,0.0092
3500.00,0.0092
3499.00,0.0092
3498.00,0.0092
3497.00,0.0092
3496.00,0.0093
3495.00,0.0093
3494.00,0.0093
3493.00,0.0093
3492.00,0.0094
3491.00,0.0094
3490.00,0.0094
3489.00,0.0094
3488.00,0.0093
3487.00,0.0093
3486.00,0.0094
3485.00,0.0094
3484.00,0.0094
3483.00,0.0094
3482.00,0.0094
3481.00,0.0094
3480.00,0.0094
3479.00,0.0095
3478.00,0.0095
3477.00,0.0095
3476.00,0.0096
3475.00,0.0096
3474.00,0.0096
3473.00,0.0096
3472.00,0.0096
3471.00,0.0096
3470.00,0.0096
3469.00,0.0096
3468.00,0.0096
3467.00,0.0096
3466.00,0.0097
3465.00,0.0098
3464.00,0.0098
3463.00,0.0098
3462.00,0.0098
3461.00,0.0098
3460.00,0.0098
3459.00,0.0099
3458.00,0.0099
3457.00,0.0100
3456.00,0.0100
3455.00,0.0101
3454.00,0.0101
3453.00,0.0102
3452.00,0.0102
3451.00,0.0102
3450.00,0.0103
3449.00,0.0103
3448.00,0.0103
3447.00,0.0104
3446.00,0.0104
3445.00,0.0105
3444.00,0.0105
3443.00,0.0106
3442.00,0.0106
3441.00,0.0106
3440.00,0.0106
3439.00,0.0106
3438.00,0.0105
3437.00,0.0105
3436.00,0.0105
3435.00,0.0106
3434.00,0.0107
3433.00,0.0108
3432.00,0.0108
3431.00,0.0109
3430.00,0.0110
3429.00,0.0111
3428.00,0.0113
3427.00,0.0114
3426.00,0.0115
3425.00,0.0116
3424.00,0.0116
3423.00,0.0117
3422.00,0.0117
3421.00,0.0118
3420.00,0.0119
3419.00,0.0119
3418.00,0.0120
3417.00,0.0120
3416.00,0.0120
3415.00,0.0120
3414.00,0.0120
3413.00,0.0120
3412.00,0.0120
3411.00,0.0121
3410.00,0.0122
3409.00,0.0123
3408.00,0.0124
3407.00,0.0125
3406.00,0.0125
3405.00,0.0125
3404.00,0.0124
3403.00,0.0122
3402.00,0.0121
3401.00,0.0121
3400.00,0.0122
3399.00,0.0125
3398.00,0.0127
3397.00,0.0128
3396.00,0.0129
3395.00,0.0129
3394.00,0.0128
3393.00,0.0128
3392.00,0.0128
3391.00,0.0129
3390.00,0.0132
3389.00,0.0134
3388.00,0.0135
3387.00,0.0137
3386.00,0.0137
3385.00,0.0138
3384.00,0.0138
3383.00,0.0139
3382.00,0.0139
3381.00,0.0140
3380.00,0.0141
3379.00,0.0141
3378.00,0.0142
3377.00,0.0142
3376.00,0.0143
3375.00,0.0143
3374.00,0.0144
3373.00,0.0143
3372.00,0.0143
3371.00,0.0142
3370.00,0.0141
3369.00,0.0141
3368.00,0.0143
3367.00,0.0145
3366.00,0.0147
3365.00,0.0149
3364.00,0.0150
3363.00,0.0151
3362.00,0.0151
3361.00,0.0152
3360.00,0.0153
3359.00,0.0154
3358.00,0.0156
3357.00,0.0157
3356.00,0.0158
3355.00,0.0158
3354.00,0.0158
3353.00,0.0158
3352.00,0.0157
3351.00,0.0157
3350.00,0.0159
3349.00,0.0161
3348.00,0.0162
3347.00,0.0164
3346.00,0.0164
3345.00,0.0164
3344.00,0.0165
3343.00,0.0165
3342.00,0.0166
3341.00,0.0166
3340.00,0.0167
3339.00,0.0167
3338.00,0.0169
3337.00,0.0170
3336.00,0.0172
3335.00,0.0173
3334.00,0.0175
3333.00,0.0176
3332.00,0.0177
3331.00,0.0178
3330.00,0.0179
3329.00,0.0179
3328.00,0.0179
3327.00,0.0179
3326.00,0.0180
3325.00,0.0181
3324.00,0.0182
3323.00,0.0184
3322.00,0.0185
3321.00,0.0187
3320.00,0.0188
3319.00,0.0189
3318.00,0.0189
3317.00,0.0190
3316.00,0.0191
3315.00,0.0192
3314.00,0.0193
3313.00,0.0193
3312.00,0.0194
3311.00,0.0193
3310.00,0.0193
3309.00,0.0193
3308.00,0.0193
3307.00,0.0194
3306.00,0.0195
3305.00,0.0198
3304.00,0.0201
3303.00,0.0203
3302.00,0.0206
3301.00,0.0208
3300.00,0.0209
3299.00,0.0210
3298.00,0.0210
3297.00,0.0210
3296.00,0.0211
3295.00,0.0212
3294.00,0.0213
3293.00,0.0215
3292.00,0.0217
3291.00,0.0219
3290.00,0.0221
3289.00,0.0223
3288.00,0.0225
3287.00,0.0227
3286.00,0.0228
3285.00,0.0229
3284.00,0.0231
3283.00,0.0232
3282.00,0.0233
3281.00,0.0235
3280.00,0.0237
3279.00,0.0238
3278.00,0.0239
3277.00,0.0240
3276.00,0.0242
3275.00,0.0243
3274.00,0.0243
3273.00,0.0244
3272.00,0.0245
3271.00,0.0247
3270.00,0.0249
3269.00,0.0252
3268.00,0.0254
3267.00,0.0257
3266.00,0.0259
3265.00,0.0261
3264.00,0.0263
3263.00,0.0264
3262.00,0.0266
3261.00,0.0268
3260.00,0.0269
3259.00,0.0271
3258.00,0.0272
3257.00,0.0272
3256.00,0.0274
3255.00,0.0275
3254.00,0.0277
3253.00,0.0279
3252.00,0.0281
3251.00,0.0282
3250.00,0.0283
3249.00,0.0284
3248.00,0.0286
3247.00,0.0287
3246.00,0.0289
3245.00,0.0291
3244.00,0.0293
3243.00,0.0295
3242.00,0.0297
3241.00,0.0299
3240.00,0.0301
3239.00,0.0302
3238.00,0.0304
3237.00,0.0305
3236.00,0.0306
3235.00,0.0308
3234.00,0.0309
3233.00,0.0311
3232.00,0.0314
3231.00,0.0316
3230.00,0.0319
3229.00,0.0321
3228.00,0.0323
3227.00,0.0325
3226.00,0.0327
3225.00,0.0329
3224.00,0.0331
3223.00,0.0333
3222.00,0.0335
3221.00,0.0337
3220.00,0.0339
3219.00,0.0341
3218.00,0.0343
3217.00,0.0346
3216.00,0.0348
3215.00,0.0349
3214.00,0.0351
3213.00,0.0353
3212.00,0.0356
3211.00,0.0358
3210.00,0.0360
3209.00,0.0362
3208.00,0.0364
3207.00,0.0366
3206.00,0.0368
3205.00,0.0370
3204.00,0.0373
3203.00,0.0375
3202.00,0.0377
3201.00,0.0380
3200.00,0.0382
3199.00,0.0384
3198.00,0.0387
3197.00,0.0389
3196.00,0.0391
3195.00,0.0394
3194.00,0.0396
3193.00,0.0398
3192.00,0.0400
3191.00,0.0403
3190.00,0.0405
3189.00,0.0408
3188.00,0.0410
3187.00,0.0413
3186.00,0.0415
3185.00,0.0417
3184.00,0.0419
3183.00,0.0422
3182.00,0.0424
3181.00,0.0426
3180.00,0.0429
3179.00,0.0431
3178.00,0.0433
3177.00,0.0435
3176.00,0.0438
3175.00,0.0440
3174.00,0.0442
3173.00,0.0444
3172.00,0.0446
3171.00,0.0449
3170.00,0.0451
3169.00,0.0453
3168.00,0.0456
3167.00,0.0458
3166.00,0.0460
3165.00,0.0462
3164.00,0.0465
3163.00,0.0467
3162.00,0.0469
3161.00,0.0472
3160.00,0.0474
3159.00,0.0477
3158.00,0.0479
3157.00,0.0481
3156.00,0.0483
3155.00,0.0485
3154.00,0.0487
3153.00,0.0490
3152.00,0.0492
3151.00,0.0495
3150.00,0.0498
3149.00,0.0501
3148.00,0.0504
3147.00,0.0506
3146.00,0.0509
3145.00,0.0512
3144.00,0.0515
3143.00,0.0518
3142.00,0.0520
3141.00,0.0523
3140.00,0.0525
3139.00,0.0528
3138.00,0.0531
3137.00,0.0534
3136.00,0.0537
3135.00,0.0540
3134.00,0.0543
3133.00,0.0546
3132.00,0.0549
3131.00,0.0552
3130.00,0.0555
3129.00,0.0558
3128.00,0.0561
3127.00,0.0564
3126.00,0.0567
3125.00,0.0570
3124.00,0.0572
3123.00,0.0575
3122.00,0.0578
3121.00,0.0580
3120.00,0.0583
3119.00,0.0586
3118.00,0.0589
3117.00,0.0592
3116.00,0.0596
3115.00,0.0600
3114.00,0.0604
3113.00,0.0608
3112.00,0.0613
3111.00,0.0617
3110.00,0.0622
3109.00,0.0628
3108.00,0.0634
3107.00,0.0641
3106.00,0.0648
3105.00,0.0656
3104.00,0.0664
3103.00,0.0672
3102.00,0.0679
3101.00,0.0685
3100.00,0.0689
3099.00,0.0692
3098.00,0.0694
3097.00,0.0696
3096.00,0.0699
3095.00,0.0701
3094.00,0.0706
3093.00,0.0712
3092.00,0.0721
3091.00,0.0734
3090.00,0.0751
3089.00,0.0773
3088.00,0.0797
3087.00,0.0822
3086.00,0.0847
3085.00,0.0869
3084.00,0.0885
3083.00,0.0894
3082.00,0.0895
3081.00,0.0887
3080.00,0.0875
3079.00,0.0860
3078.00,0.0846
3077.00,0.0833
3076.00,0.0823
3075.00,0.0815
3074.00,0.0810
3073.00,0.0807
3072.00,0.0805
3071.00,0.0805
3070.00,0.0806
3069.00,0.0807
3068.00,0.0807
3067.00,0.0808
3066.00,0.0811
3065.00,0.0816
3064.00,0.0823
3063.00,0.0831
3062.00,0.0839
3061.00,0.0846
3060.00,0.0851
3059.00,0.0856
3058.00,0.0860
3057.00,0.0864
3056.00,0.0868
3055.00,0.0871
3054.00,0.0873
3053.00,0.0875
3052.00,0.0877
3051.00,0.0880
3050.00,0.0881
3049.00,0.0881
3048.00,0.0879
3047.00,0.0875
3046.00,0.0870
3045.00,0.0866
3044.00,0.0862
3043.00,0.0860
3042.00,0.0859
3041.00,0.0858
3040.00,0.0857
3039.00,0.0857
3038.00,0.0857
3037.00,0.0856
3036.00,0.0857
3035.00,0.0857
3034.00,0.0859
3033.00,0.0861
3032.00,0.0864
3031.00,0.0867
3030.00,0.0870
3029.00,0.0872
3028.00,0.0873
3027.00,0.0873
3026.00,0.0874
3025.00,0.0874
3024.00,0.0875
3023.00,0.0875
3022.00,0.0876
3021.00,0.0877
3020.00,0.0877
3019.00,0.0877
3018.00,0.0877
3017.00,0.0877
3016.00,0.0877
3015.00,0.0877
3014.00,0.0876
3013.00,0.0876
3012.00,0.0876
3011.00,0.0877
3010.00,0.0877
3009.00,0.0877
3008.00,0.0878
3007.00,0.0879
3006.00,0.0881
3005.00,0.0883
3004.00,0.0884
3003.00,0.0885
3002.00,0.0885
3001.00,0.0885
3000.00,0.0884
2999.00,0.0883
2998.00,0.0882
2997.00,0.0882
2996.00,0.0883
2995.00,0.0883
2994.00,0.0884
2993.00,0.0885
2992.00,0.0886
2991.00,0.0887
2990.00,0.0889
2989.00,0.0891
2988.00,0.0893
2987.00,0.0895
2986.00,0.0897
2985.00,0.0899
2984.00,0.0901
2983.00,0.0903
2982.00,0.0906
2981.00,0.0910
2980.00,0.0915
2979.00,0.0921
2978.00,0.0928
2977.00,0.0936
2976.00,0.0944
2975.00,0.0954
2974.00,0.0964
2973.00,0.0976
2972.00,0.0991
2971.00,0.1010
2970.00,0.1032
2969.00,0.1059
2968.00,0.1090
2967.00,0.1127
2966.00,0.1167
2965.00,0.1209
2964.00,0.1251
2963.00,0.1287
2962.00,0.1318
2961.00,0.1342
2960.00,0.1362
2959.00,0.1380
2958.00,0.1400
2957.00,0.1421
2956.00,0.1441
2955.00,0.1457
2954.00,0.1464
2953.00,0.1462
2952.00,0.1449
2951.00,0.1429
2950.00,0.1408
2949.00,0.1389
2948.00,0.1375
2947.00,0.1368
2946.00,0.1368
2945.00,0.1373
2944.00,0.1384
2943.00,0.1399
2942.00,0.1418
2941.00,0.1443
2940.00,0.1472
2939.00,0.1507
2938.00,0.1548
2937.00,0.1592
2936.00,0.1638
2935.00,0.1684
2934.00,0.1727
2933.00,0.1766
2932.00,0.1801
2931.00,0.1833
2930.00,0.1864
2929.00,0.1894
2928.00,0.1926
2927.00,0.1960
2926.00,0.1998
2925.00,0.2039
2924.00,0.2084
2923.00,0.2132
2922.00,0.2179
2921.00,0.2224
2920.00,0.2262
2919.00,0.2286
2918.00,0.2293
2917.00,0.2280
2916.00,0.2244
2915.00,0.2190
2914.00,0.2121
2913.00,0.2046
2912.00,0.1970
2911.00,0.1897
2910.00,0.1831
2909.00,0.1773
2908.00,0.1722
2907.00,0.1677
2906.00,0.1637
2905.00,0.1602
2904.00,0.1571
2903.00,0.1541
2902.00,0.1514
2901.00,0.1488
2900.00,0.1463
2899.00,0.1440
2898.00,0.1419
2897.00,0.1400
2896.00,0.1382
2895.00,0.1366
2894.00,0.1350
2893.00,0.1335
2892.00,0.1321
2891.00,0.1306
2890.00,0.1293
2889.00,0.1280
2888.00,0.1267
2887.00,0.1256
2886.00,0.1247
2885.00,0.1240
2884.00,0.1234
2883.00,0.1231
2882.00,0.1231
2881.00,0.1234
2880.00,0.1241
2879.00,0.1252
2878.00,0.1268
2877.00,0.1288
2876.00,0.1313
2875.00,0.1341
2874.00,0.1368
2873.00,0.1391
2872.00,0.1407
2871.00,0.1414
2870.00,0.1413
2869.00,0.1406
2868.00,0.1399
2867.00,0.1394
2866.00,0.1394
2865.00,0.1402
2864.00,0.1417
2863.00,0.1441
2862.00,0.1472
2861.00,0.1511
2860.00,0.1555
2859.00,0.1602
2858.00,0.1648
2857.00,0.1691
2856.00,0.1732
2855.00,0.1771
2854.00,0.1810
2853.00,0.1849
2852.00,0.1882
2851.00,0.1900
2850.00,0.1896
2849.00,0.1864
2848.00,0.1806
2847.00,0.1727
2846.00,0.1637
2845.00,0.1548
2844.00,0.1464
2843.00,0.1391
2842.00,0.1328
2841.00,0.1276
2840.00,0.1234
2839.00,0.1199
2838.00,0.1170
2837.00,0.1147
2836.00,0.1127
2835.00,0.1110
2834.00,0.1095
2833.00,0.1083
2832.00,0.1071
2831.00,0.1061
2830.00,0.1052
2829.00,0.1043
2828.00,0.1035
2827.00,0.1028
2826.00,0.1021
2825.00,0.1014
2824.00,0.1008
2823.00,0.1002
2822.00,0.0996
2821.00,0.0990
2820.00,0.0985
2819.00,0.0979
2818.00,0.0974
2817.00,0.0968
2816.00,0.0964
2815.00,0.0959
2814.00,0.0954
2813.00,0.0949
2812.00,0.0944
2811.00,0.0939
2810.00,0.0935
2809.00,0.0930
2808.00,0.0926
2807.00,0.0922
2806.00,0.0918
2805.00,0.0914
2804.00,0.0910
2803.00,0.0906
2802.00,0.0902
2801.00,0.0898
2800.00,0.0895
2799.00,0.0891
2798.00,0.0888
2797.00,0.0884
2796.00,0.0881
2795.00,0.0878
2794.00,0.0875
2793.00,0.0871
2792.00,0.0868
2791.00,0.0865
2790.00,0.0861
2789.00,0.0858
2788.00,0.0855
2787.00,0.0852
2786.00,0.0849
2785.00,0.0846
2784.00,0.0842
2783.00,0.0839
2782.00,0.0836
2781.00,0.0834
2780.00,0.0831
2779.00,0.0828
2778.00,0.0825
2777.00,0.0823
2776.00,0.0820
2775.00,0.0818
2774.00,0.0815
2773.00,0.0813
2772.00,0.0810
2771.00,0.0808
2770.00,0.0805
2769.00,0.0803
2768.00,0.0801
2767.00,0.0798
2766.00,0.0796
2765.00,0.0793
2764.00,0.0791
2763.00,0.0788
2762.00,0.0786
2761.00,0.0784
2760.00,0.0782
2759.00,0.0781
2758.00,0.0779
2757.00,0.0777
2756.00,0.0776
2755.00,0.0774
2754.00,0.0773
2753.00,0.0772
2752.00,0.0771
2751.00,0.0769
2750.00,0.0768
2749.00,0.0766
2748.00,0.0765
2747.00,0.0764
2746.00,0.0763
2745.00,0.0762
2744.00,0.0760
2743.00,0.0759
2742.00,0.0758
2741.00,0.0756
2740.00,0.0755
2739.00,0.0754
2738.00,0.0753
2737.00,0.0752
2736.00,0.0752
2735.00,0.0751
2734.00,0.0751
2733.00,0.0751
2732.00,0.0751
2731.00,0.0751
2730.00,0.0751
2729.00,0.0751
2728.00,0.0752
2727.00,0.0752
2726.00,0.0753
2725.00,0.0753
2724.00,0.0754
2723.00,0.0755
2722.00,0.0756
2721.00,0.0757
2720.00,0.0759
2719.00,0.0761
2718.00,0.0762
2717.00,0.0764
2716.00,0.0766
2715.00,0.0768
2714.00,0.0771
2713.00,0.0773
2712.00,0.0775
2711.00,0.0777
2710.00,0.0780
2709.00,0.0782
2708.00,0.0785
2707.00,0.0788
2706.00,0.0791
2705.00,0.0794
2704.00,0.0797
2703.00,0.0800
2702.00,0.0803
2701.00,0.0806
2700.00,0.0810
2699.00,0.0813
2698.00,0.0816
2697.00,0.0819
2696.00,0.0822
2695.00,0.0825
2694.00,0.0828
2693.00,0.0831
2692.00,0.0833
2691.00,0.0836
2690.00,0.0838
2689.00,0.0840
2688.00,0.0842
2687.00,0.0843
2686.00,0.0845
2685.00,0.0846
2684.00,0.0848
2683.00,0.0849
2682.00,0.0850
2681.00,0.0850
2680.00,0.0851
2679.00,0.0851
2678.00,0.0851
2677.00,0.0851
2676.00,0.0851
2675.00,0.0851
2674.00,0.0851
2673.00,0.0851
2672.00,0.0851
2671.00,0.0851
2670.00,0.0851
2669.00,0.0851
2668.00,0.0851
2667.00,0.0850
2666.00,0.0850
2665.00,0.0850
2664.00,0.0850
2663.00,0.0850
2662.00,0.0850
2661.00,0.0850
2660.00,0.0849
2659.00,0.0849
2658.00,0.0848
2657.00,0.0846
2656.00,0.0845
2655.00,0.0843
2654.00,0.0841
2653.00,0.0840
2652.00,0.0838
2651.00,0.0835
2650.00,0.0833
2649.00,0.0830
2648.00,0.0827
2647.00,0.0824
2646.00,0.0821
2645.00,0.0818
2644.00,0.0815
2643.00,0.0812
2642.00,0.0809
2641.00,0.0807
2640.00,0.0804
2639.00,0.0801
2638.00,0.0799
2637.00,0.0796
2636.00,0.0793
2635.00,0.0791
2634.00,0.0788
2633.00,0.0785
2632.00,0.0782
2631.00,0.0779
2630.00,0.0776
2629.00,0.0773
2628.00,0.0770
2627.00,0.0768
2626.00,0.0765
2625.00,0.0763
2624.00,0.0761
2623.00,0.0759
2622.00,0.0757
2621.00,0.0756
2620.00,0.0755
2619.00,0.0754
2618.00,0.0753
2617.00,0.0752
2616.00,0.0752
2615.00,0.0752
2614.00,0.0751
2613.00,0.0750
2612.00,0.0750
2611.00,0.0749
2610.00,0.0749
2609.00,0.0748
2608.00,0.0748
2607.00,0.0748
2606.00,0.0747
2605.00,0.0746
2604.00,0.0745
2603.00,0.0743
2602.00,0.0742
2601.00,0.0741
2600.00,0.0740
2599.00,0.0738
2598.00,0.0737
2597.00,0.0735
2596.00,0.0734
2595.00,0.0734
2594.00,0.0734
2593.00,0.0735
2592.00,0.0737
2591.00,0.0740
2590.00,0.0743
2589.00,0.0746
2588.00,0.0750
2587.00,0.0754
2586.00,0.0758
2585.00,0.0762
2584.00,0.0766
2583.00,0.0768
2582.00,0.0769
2581.00,0.0770
2580.00,0.0770
2579.00,0.0769
2578.00,0.0768
2577.00,0.0767
2576.00,0.0766
2575.00,0.0765
2574.00,0.0763
2573.00,0.0761
2572.00,0.0759
2571.00,0.0757
2570.00,0.0755
2569.00,0.0753
2568.00,0.0752
2567.00,0.0751
2566.00,0.0750
2565.00,0.0749
2564.00,0.0748
2563.00,0.0747
2562.00,0.0746
2561.00,0.0745
2560.00,0.0744
2559.00,0.0742
2558.00,0.0740
2557.00,0.0738
2556.00,0.0737
2555.00,0.0735
2554.00,0.0734
2553.00,0.0733
2552.00,0.0732
2551.00,0.0732
2550.00,0.0732
2549.00,0.0734
2548.00,0.0737
2547.00,0.0740
2546.00,0.0744
2545.00,0.0749
2544.00,0.0755
2543.00,0.0760
2542.00,0.0766
2541.00,0.0772
2540.00,0.0777
2539.00,0.0781
2538.00,0.0784
2537.00,0.0786
2536.00,0.0787
2535.00,0.0786
2534.00,0.0785
2533.00,0.0783
2532.00,0.0781
2531.00,0.0778
2530.00,0.0774
2529.00,0.0771
2528.00,0.0767
2527.00,0.0763
2526.00,0.0759
2525.00,0.0756
2524.00,0.0754
2523.00,0.0752
2522.00,0.0751
2521.00,0.0750
2520.00,0.0749
2519.00,0.0748
2518.00,0.0748
2517.00,0.0747
2516.00,0.0747
2515.00,0.0746
2514.00,0.0744
2513.00,0.0743
2512.00,0.0740
2511.00,0.0738
2510.00,0.0735
2509.00,0.0732
2508.00,0.0729
2507.00,0.0725
2506.00,0.0720
2505.00,0.0716
2504.00,0.0711
2503.00,0.0706
2502.00,0.0701
2501.00,0.0696
2500.00,0.0692
2499.00,0.0687
2498.00,0.0682
2497.00,0.0678
2496.00,0.0673
2495.00,0.0668
2494.00,0.0664
2493.00,0.0659
2492.00,0.0655
2491.00,0.0651
2490.00,0.0647
2489.00,0.0644
2488.00,0.0640
2487.00,0.0637
2486.00,0.0634
2485.00,0.0632
2484.00,0.0629
2483.00,0.0627
2482.00,0.0624
2481.00,0.0621
2480.00,0.0618
2479.00,0.0615
2478.00,0.0612
2477.00,0.0608
2476.00,0.0605
2475.00,0.0602
2474.00,0.0598
2473.00,0.0594
2472.00,0.0591
2471.00,0.0587
2470.00,0.0583
2469.00,0.0580
2468.00,0.0576
2467.00,0.0573
2466.00,0.0570
2465.00,0.0567
2464.00,0.0564
2463.00,0.0561
2462.00,0.0558
2461.00,0.0555
2460.00,0.0553
2459.00,0.0550
2458.00,0.0548
2457.00,0.0546
2456.00,0.0544
2455.00,0.0542
2454.00,0.0540
2453.00,0.0538
2452.00,0.0537
2451.00,0.0535
2450.00,0.0533
2449.00,0.0531
2448.00,0.0528
2447.00,0.0526
2446.00,0.0524
2445.00,0.0521
2444.00,0.0519
2443.00,0.0517
2442.00,0.0514
2441.00,0.0512
2440.00,0.0510
2439.00,0.0508
2438.00,0.0507
2437.00,0.0505
2436.00,0.0504
2435.00,0.0502
2434.00,0.0500
2433.00,0.0498
2432.00,0.0496
2431.00,0.0495
2430.00,0.0493
2429.00,0.0491
2428.00,0.0490
2427.00,0.0488
2426.00,0.0487
2425.00,0.0486
2424.00,0.0486
2423.00,0.0485
2422.00,0.0484
2421.00,0.0482
2420.00,0.0481
2419.00,0.0480
2418.00,0.0478
2417.00,0.0477
2416.00,0.0476
2415.00,0.0475
2414.00,0.0474
2413.00,0.0472
2412.00,0.0471
2411.00,0.0469
2410.00,0.0467
2409.00,0.0465
2408.00,0.0463
2407.00,0.0462
2406.00,0.0460
2405.00,0.0459
2404.00,0.0457
2403.00,0.0455
2402.00,0.0454
2401.00,0.0453
2400.00,0.0451
2399.00,0.0450
2398.00,0.0450
2397.00,0.0449
2396.00,0.0448
2395.00,0.0447
2394.00,0.0446
2393.00,0.0445
2392.00,0.0444
2391.00,0.0443
2390.00,0.0442
2389.00,0.0441
2388.00,0.0439
2387.00,0.0437
2386.00,0.0435
2385.00,0.0434
2384.00,0.0432
2383.00,0.0430
2382.00,0.0427
2381.00,0.0425
2380.00,0.0424
2379.00,0.0423
2378.00,0.0422
2377.00,0.0422
2376.00,0.0421
2375.00,0.0420
2374.00,0.0419
2373.00,0.0418
2372.00,0.0417
2371.00,0.0415
2370.00,0.0413
2369.00,0.0411
2368.00,0.0410
2367.00,0.0409
2366.00,0.0408
2365.00,0.0408
2364.00,0.0407
2363.00,0.0407
2362.00,0.0406
2361.00,0.0405
2360.00,0.0404
2359.00,0.0403
2358.00,0.0403
2357.00,0.0402
2356.00,0.0402
2355.00,0.0402
2354.00,0.0400
2353.00,0.0398
2352.00,0.0397
2351.00,0.0396
2350.00,0.0395
2349.00,0.0394
2348.00,0.0393
2347.00,0.0391
2346.00,0.0390
2345.00,0.0390
2344.00,0.0390
2343.00,0.0390
2342.00,0.0390
2341.00,0.0389
2340.00,0.0389
2339.00,0.0388
2338.00,0.0387
2337.00,0.0386
2336.00,0.0385
2335.00,0.0383
2334.00,0.0382
2333.00,0.0381
2332.00,0.0380
2331.00,0.0380
2330.00,0.0380
2329.00,0.0381
2328.00,0.0383
2327.00,0.0385
2326.00,0.0386
2325.00,0.0386
2324.00,0.0384
2323.00,0.0382
2322.00,0.0380
2321.00,0.0379
2320.00,0.0378
2319.00,0.0377
2318.00,0.0376
2317.00,0.0375
2316.00,0.0373
2315.00,0.0371
2314.00,0.0369
2313.00,0.0368
2312.00,0.0367
2311.00,0.0366
2310.00,0.0366
2309.00,0.0365
2308.00,0.0365
2307.00,0.0364
2306.00,0.0364
2305.00,0.0364
2304.00,0.0363
2303.00,0.0363
2302.00,0.0362
2301.00,0.0362
2300.00,0.0361
2299.00,0.0361
2298.00,0.0361
2297.00,0.0361
2296.00,0.0361
2295.00,0.0361
2294.00,0.0361
2293.00,0.0361
2292.00,0.0362
2291.00,0.0362
2290.00,0.0362
2289.00,0.0362
2288.00,0.0362
2287.00,0.0361
2286.00,0.0359
2285.00,0.0357
2284.00,0.0355
2283.00,0.0353
2282.00,0.0351
2281.00,0.0349
2280.00,0.0348
2279.00,0.0347
2278.00,0.0345
2277.00,0.0344
2276.00,0.0344
2275.00,0.0343
2274.00,0.0341
2273.00,0.0340
2272.00,0.0340
2271.00,0.0339
2270.00,0.0338
2269.00,0.0338
2268.00,0.0337
2267.00,0.0336
2266.00,0.0335
2265.00,0.0334
2264.00,0.0334
2263.00,0.0335
2262.00,0.0335
2261.00,0.0336
2260.00,0.0336
2259.00,0.0336
2258.00,0.0334
2257.00,0.0333
2256.00,0.0333
2255.00,0.0333
2254.00,0.0334
2253.00,0.0335
2252.00,0.0336
2251.00,0.0336
2250.00,0.0335
2249.00,0.0335
2248.00,0.0335
2247.00,0.0334
2246.00,0.0333
2245.00,0.0333
2244.00,0.0332
2243.00,0.0332
2242.00,0.0331
2241.00,0.0330
2240.00,0.0329
2239.00,0.0327
2238.00,0.0324
2237.00,0.0322
2236.00,0.0321
2235.00,0.0320
2234.00,0.0318
2233.00,0.0317
2232.00,0.0316
2231.00,0.0315
2230.00,0.0314
2229.00,0.0313
2228.00,0.0313
2227.00,0.0312
2226.00,0.0312
2225.00,0.0311
2224.00,0.0310
2223.00,0.0308
2222.00,0.0305
2221.00,0.0303
2220.00,0.0302
2219.00,0.0302
2218.00,0.0301
2217.00,0.0300
2216.00,0.0299
2215.00,0.0297
2214.00,0.0295
2213.00,0.0294
2212.00,0.0294
2211.00,0.0294
2210.00,0.0293
2209.00,0.0292
2208.00,0.0292
2207.00,0.0292
2206.00,0.0292
2205.00,0.0292
2204.00,0.0292
2203.00,0.0291
2202.00,0.0290
2201.00,0.0291
2200.00,0.0291
2199.00,0.0292
2198.00,0.0292
2197.00,0.0292
2196.00,0.0293
2195.00,0.0294
2194.00,0.0294
2193.00,0.0295
2192.00,0.0297
2191.00,0.0298
2190.00,0.0297
2189.00,0.0297
2188.00,0.0297
2187.00,0.0296
2186.00,0.0295
2185.00,0.0294
2184.00,0.0293
2183.00,0.0290
2182.00,0.0288
2181.00,0.0288
2180.00,0.0290
2179.00,0.0291
2178.00,0.0290
2177.00,0.0288
2176.00,0.0288
2175.00,0.0288
2174.00,0.0289
2173.00,0.0292
2172.00,0.0294
2171.00,0.0293
2170.00,0.0291
2169.00,0.0289
2168.00,0.0288
2167.00,0.0287
2166.00,0.0286
2165.00,0.0288
2164.00,0.0291
2163.00,0.0291
2162.00,0.0285
2161.00,0.0274
2160.00,0.0261
2159.00,0.0249
2158.00,0.0242
2157.00,0.0243
2156.00,0.0248
2155.00,0.0253
2154.00,0.0255
2153.00,0.0257
2152.00,0.0258
2151.00,0.0257
2150.00,0.0256
2149.00,0.0255
2148.00,0.0255
2147.00,0.0254
2146.00,0.0253
2145.00,0.0253
2144.00,0.0254
2143.00,0.0254
2142.00,0.0253
2141.00,0.0252
2140.00,0.0252
2139.00,0.0252
2138.00,0.0250
2137.00,0.0248
2136.00,0.0246
2135.00,0.0245
2134.00,0.0243
2133.00,0.0243
2132.00,0.0244
2131.00,0.0244
2130.00,0.0244
2129.00,0.0245
2128.00,0.0246
2127.00,0.0246
2126.00,0.0246
2125.00,0.0247
2124.00,0.0248
2123.00,0.0248
2122.00,0.0248
2121.00,0.0248
2120.00,0.0248
2119.00,0.0248
2118.00,0.0248
2117.00,0.0249
2116.00,0.0250
2115.00,0.0250
2114.00,0.0250
2113.00,0.0249
2112.00,0.0248
2111.00,0.0248
2110.00,0.0247
2109.00,0.0247
2108.00,0.0248
2107.00,0.0248
2106.00,0.0247
2105.00,0.0246
2104.00,0.0246
2103.00,0.0245
2102.00,0.0243
2101.00,0.0242
2100.00,0.0242
2099.00,0.0242
2098.00,0.0240
2097.00,0.0238
2096.00,0.0237
2095.00,0.0235
2094.00,0.0235
2093.00,0.0236
2092.00,0.0237
2091.00,0.0238
2090.00,0.0239
2089.00,0.0240
2088.00,0.0240
2087.00,0.0241
2086.00,0.0240
2085.00,0.0240
2084.00,0.0240
2083.00,0.0240
2082.00,0.0240
2081.00,0.0239
2080.00,0.0239
2079.00,0.0239
2078.00,0.0237
2077.00,0.0236
2076.00,0.0236
2075.00,0.0234
2074.00,0.0233
2073.00,0.0232
2072.00,0.0232
2071.00,0.0231
2070.00,0.0229
2069.00,0.0227
2068.00,0.0227
2067.00,0.0226
2066.00,0.0225
2065.00,0.0225
2064.00,0.0226
2063.00,0.0226
2062.00,0.0225
2061.00,0.0224
2060.00,0.0224
2059.00,0.0223
2058.00,0.0222
2057.00,0.0221
2056.00,0.0220
2055.00,0.0220
2054.00,0.0221
2053.00,0.0224
2052.00,0.0228
2051.00,0.0228
2050.00,0.0225
2049.00,0.0221
2048.00,0.0219
2047.00,0.0217
2046.00,0.0216
2045.00,0.0216
2044.00,0.0216
2043.00,0.0215
2042.00,0.0213
2041.00,0.0213
2040.00,0.0215
2039.00,0.0216
2038.00,0.0217
2037.00,0.0217
2036.00,0.0216
2035.00,0.0213
2034.00,0.0207
2033.00,0.0204
2032.00,0.0203
2031.00,0.0201
2030.00,0.0198
2029.00,0.0195
2028.00,0.0194
2027.00,0.0193
2026.00,0.0191
2025.00,0.0191
2024.00,0.0192
2023.00,0.0192
2022.00,0.0189
2021.00,0.0188
2020.00,0.0189
2019.00,0.0189
2018.00,0.0187
2017.00,0.0185
2016.00,0.0186
2015.00,0.0185
2014.00,0.0184
2013.00,0.0185
2012.00,0.0189
2011.00,0.0191
2010.00,0.0192
2009.00,0.0191
2008.00,0.0191
2007.00,0.0190
2006.00,0.0188
2005.00,0.0189
2004.00,0.0192
2003.00,0.0194
2002.00,0.0193
2001.00,0.0193
2000.00,0.0195
1999.00,0.0197
1998.00,0.0198
1997.00,0.0199
1996.00,0.0202
1995.00,0.0203
1994.00,0.0203
1993.00,0.0203
1992.00,0.0204
1991.00,0.0206
1990.00,0.0207
1989.00,0.0209
1988.00,0.0213
1987.00,0.0214
1986.00,0.0214
1985.00,0.0215
1984.00,0.0217
1983.00,0.0218
1982.00,0.0217
1981.00,0.0216
1980.00,0.0214
1979.00,0.0210
1978.00,0.0204
1977.00,0.0202
1976.00,0.0204
1975.00,0.0204
1974.00,0.0202
1973.00,0.0202
1972.00,0.0205
1971.00,0.0206
1970.00,0.0205
1969.00,0.0205
1968.00,0.0205
1967.00,0.0204
1966.00,0.0202
1965.00,0.0203
1964.00,0.0206
1963.00,0.0206
1962.00,0.0205
1961.00,0.0204
1960.00,0.0206
1959.00,0.0208
1958.00,0.0211
1957.00,0.0216
1956.00,0.0222
1955.00,0.0226
1954.00,0.0226
1953.00,0.0227
1952.00,0.0228
1951.00,0.0228
1950.00,0.0227
1949.00,0.0228
1948.00,0.0230
1947.00,0.0231
1946.00,0.0230
1945.00,0.0231
1944.00,0.0233
1943.00,0.0235
1942.00,0.0235
1941.00,0.0238
1940.00,0.0241
1939.00,0.0242
1938.00,0.0241
1937.00,0.0241
1936.00,0.0241
1935.00,0.0242
1934.00,0.0242
1933.00,0.0244
1932.00,0.0246
1931.00,0.0248
1930.00,0.0249
1929.00,0.0251
1928.00,0.0253
1927.00,0.0254
1926.00,0.0255
1925.00,0.0257
1924.00,0.0261
1923.00,0.0263
1922.00,0.0262
1921.00,0.0262
1920.00,0.0262
1919.00,0.0262
1918.00,0.0261
1917.00,0.0261
1916.00,0.0263
1915.00,0.0265
1914.00,0.0265
1913.00,0.0266
1912.00,0.0268
1911.00,0.0269
1910.00,0.0269
1909.00,0.0270
1908.00,0.0271
1907.00,0.0272
1906.00,0.0271
1905.00,0.0271
1904.00,0.0272
1903.00,0.0271
1902.00,0.0270
1901.00,0.0270
1900.00,0.0270
1899.00,0.0269
1898.00,0.0269
1897.00,0.0270
1896.00,0.0272
1895.00,0.0272
1894.00,0.0272
1893.00,0.0273
1892.00,0.0276
1891.00,0.0277
1890.00,0.0278
1889.00,0.0278
1888.00,0.0280
1887.00,0.0282
1886.00,0.0283
1885.00,0.0284
1884.00,0.0284
1883.00,0.0283
1882.00,0.0282
1881.00,0.0280
1880.00,0.0279
1879.00,0.0278
1878.00,0.0275
1877.00,0.0273
1876.00,0.0272
1875.00,0.0270
1874.00,0.0267
1873.00,0.0264
1872.00,0.0262
1871.00,0.0262
1870.00,0.0263
1869.00,0.0264
1868.00,0.0265
1867.00,0.0264
1866.00,0.0263
1865.00,0.0262
1864.00,0.0263
1863.00,0.0263
1862.00,0.0262
1861.00,0.0263
1860.00,0.0264
1859.00,0.0265
1858.00,0.0265
1857.00,0.0266
1856.00,0.0267
1855.00,0.0267
1854.00,0.0267
1853.00,0.0267
1852.00,0.0268
1851.00,0.0268
1850.00,0.0267
1849.00,0.0266
1848.00,0.0265
1847.00,0.0264
1846.00,0.0262
1845.00,0.0262
1844.00,0.0263
1843.00,0.0266
1842.00,0.0268
1841.00,0.0271
1840.00,0.0273
1839.00,0.0273
1838.00,0.0273
1837.00,0.0272
1836.00,0.0272
1835.00,0.0272
1834.00,0.0270
1833.00,0.0270
1832.00,0.0272
1831.00,0.0274
1830.00,0.0273
1829.00,0.0271
1828.00,0.0270
1827.00,0.0271
1826.00,0.0273
1825.00,0.0275
1824.00,0.0278
1823.00,0.0281
1822.00,0.0283
1821.00,0.0284
1820.00,0.0286
1819.00,0.0287
1818.00,0.0288
1817.00,0.0291
1816.00,0.0294
1815.00,0.0296
1814.00,0.0298
1813.00,0.0300
1812.00,0.0302
1811.00,0.0303
1810.00,0.0302
1809.00,0.0302
1808.00,0.0303
1807.00,0.0303
1806.00,0.0301
1805.00,0.0299
1804.00,0.0299
1803.00,0.0299
1802.00,0.0300
1801.00,0.0302
1800.00,0.0304
1799.00,0.0306
1798.00,0.0306
1797.00,0.0305
1796.00,0.0304
1795.00,0.0303
1794.00,0.0302
1793.00,0.0303
1792.00,0.0305
1791.00,0.0308
1790.00,0.0311
1789.00,0.0314
1788.00,0.0316
1787.00,0.0316
1786.00,0.0316
1785.00,0.0317
1784.00,0.0320
1783.00,0.0324
1782.00,0.0325
1781.00,0.0326
1780.00,0.0325
1779.00,0.0324
1778.00,0.0323
1777.00,0.0321
1776.00,0.0320
1775.00,0.0319
1774.00,0.0319
1773.00,0.0319
1772.00,0.0318
1771.00,0.0315
1770.00,0.0314
1769.00,0.0315
1768.00,0.0319
1767.00,0.0323
1766.00,0.0325
1765.00,0.0326
1764.00,0.0328
1763.00,0.0330
1762.00,0.0331
1761.00,0.0333
1760.00,0.0338
1759.00,0.0341
1758.00,0.0345
1757.00,0.0348
1756.00,0.0353
1755.00,0.0356
1754.00,0.0358
1753.00,0.0361
1752.00,0.0369
1751.00,0.0381
1750.00,0.0393
1749.00,0.0405
1748.00,0.0415
1747.00,0.0423
1746.00,0.0429
1745.00,0.0437
1744.00,0.0445
1743.00,0.0451
1742.00,0.0457
1741.00,0.0465
1740.00,0.0476
1739.00,0.0484
1738.00,0.0487
1737.00,0.0490
1736.00,0.0497
1735.00,0.0512
1734.00,0.0533
1733.00,0.0560
1732.00,0.0592
1731.00,0.0622
1730.00,0.0651
1729.00,0.0684
1728.00,0.0723
1727.00,0.0767
1726.00,0.0815
1725.00,0.0872
1724.00,0.0938
1723.00,0.1011
1722.00,0.1085
1721.00,0.1163
1720.00,0.1255
1719.00,0.1371
1718.00,0.1513
1717.00,0.1672
1716.00,0.1835
1715.00,0.1991
1714.00,0.2141
1713.00,0.2289
1712.00,0.2433
1711.00,0.2575
1710.00,0.2713
1709.00,0.2847
1708.00,0.2975
1707.00,0.3100
1706.00,0.3216
1705.00,0.3312
1704.00,0.3374
1703.00,0.3408
1702.00,0.3431
1701.00,0.3453
1700.00,0.3473
1699.00,0.3484
1698.00,0.3482
1697.00,0.3468
1696.00,0.3452
1695.00,0.3442
1694.00,0.3434
1693.00,0.3419
1692.00,0.3397
1691.00,0.3371
1690.00,0.3343
1689.00,0.3308
1688.00,0.3265
1687.00,0.3219
1686.00,0.3171
1685.00,0.3113
1684.00,0.3041
1683.00,0.2974
1682.00,0.2914
1681.00,0.2848
1680.00,0.2774
1679.00,0.2700
1678.00,0.2629
1677.00,0.2561
1676.00,0.2497
1675.00,0.2440
1674.00,0.2395
1673.00,0.2357
1672.00,0.2321
1671.00,0.2287
1670.00,0.2255
1669.00,0.2227
1668.00,0.2203
1667.00,0.2185
1666.00,0.2168
1665.00,0.2151
1664.00,0.2133
1663.00,0.2115
1662.00,0.2098
1661.00,0.2082
1660.00,0.2064
1659.00,0.2044
1658.00,0.2020
1657.00,0.1990
1656.00,0.1957
1655.00,0.1930
1654.00,0.1905
1653.00,0.1875
1652.00,0.1858
1651.00,0.1853
1650.00,0.1846
1649.00,0.1833
1648.00,0.1814
1647.00,0.1792
1646.00,0.1773
1645.00,0.1762
1644.00,0.1755
1643.00,0.1748
1642.00,0.1739
1641.00,0.1727
1640.00,0.1714
1639.00,0.1700
1638.00,0.1688
1637.00,0.1674
1636.00,0.1653
1635.00,0.1634
1634.00,0.1621
1633.00,0.1608
1632.00,0.1592
1631.00,0.1574
1630.00,0.1554
1629.00,0.1532
1628.00,0.1508
1627.00,0.1484
1626.00,0.1461
1625.00,0.1441
1624.00,0.1419
1623.00,0.1397
1622.00,0.1375
1621.00,0.1355
1620.00,0.1335
1619.00,0.1316
1618.00,0.1299
1617.00,0.1281
1616.00,0.1264
1615.00,0.1251
1614.00,0.1241
1613.00,0.1230
1612.00,0.1218
1611.00,0.1206
1610.00,0.1195
1609.00,0.1184
1608.00,0.1172
1607.00,0.1161
1606.00,0.1151
1605.00,0.1141
1604.00,0.1132
1603.00,0.1123
1602.00,0.1117
1601.00,0.1111
1600.00,0.1109
1599.00,0.1110
1598.00,0.1111
1597.00,0.1114
1596.00,0.1119
1595.00,0.1130
1594.00,0.1143
1593.00,0.1149
1592.00,0.1144
1591.00,0.1130
1590.00,0.1114
1589.00,0.1102
1588.00,0.1093
1587.00,0.1086
1586.00,0.1080
1585.00,0.1072
1584.00,0.1063
1583.00,0.1053
1582.00,0.1043
1581.00,0.1031
1580.00,0.1017
1579.00,0.1004
1578.00,0.0993
1577.00,0.0983
1576.00,0.0973
1575.00,0.0967
1574.00,0.0964
1573.00,0.0960
1572.00,0.0956
1571.00,0.0953
1570.00,0.0951
1569.00,0.0948
1568.00,0.0945
1567.00,0.0941
1566.00,0.0936
1565.00,0.0930
1564.00,0.0923
1563.00,0.0917
1562.00,0.0910
1561.00,0.0901
1560.00,0.0892
1559.00,0.0883
1558.00,0.0875
1557.00,0.0866
1556.00,0.0857
1555.00,0.0847
1554.00,0.0836
1553.00,0.0826
1552.00,0.0816
1551.00,0.0805
1550.00,0.0795
1549.00,0.0785
1548.00,0.0775
1547.00,0.0765
1546.00,0.0756
1545.00,0.0747
1544.00,0.0738
1543.00,0.0730
1542.00,0.0722
1541.00,0.0715
1540.00,0.0707
1539.00,0.0701
1538.00,0.0695
1537.00,0.0689
1536.00,0.0683
1535.00,0.0677
1534.00,0.0673
1533.00,0.0664
1532.00,0.0658
1531.00,0.0655
1530.00,0.0651
1529.00,0.0646
1528.00,0.0639
1527.00,0.0633
1526.00,0.0628
1525.00,0.0623
1524.00,0.0618
1523.00,0.0615
1522.00,0.0611
1521.00,0.0607
1520.00,0.0606
1519.00,0.0606
1518.00,0.0604
1517.00,0.0596
1516.00,0.0587
1515.00,0.0581
1514.00,0.0581
1513.00,0.0586
1512.00,0.0595
1511.00,0.0601
1510.00,0.0601
1509.00,0.0598
1508.00,0.0594
1507.00,0.0589
1506.00,0.0593
1505.00,0.0607
1504.00,0.0617
1503.00,0.0615
1502.00,0.0603
1501.00,0.0587
1500.00,0.0571
1499.00,0.0554
1498.00,0.0539
1497.00,0.0524
1496.00,0.0513
1495.00,0.0504
1494.00,0.0496
1493.00,0.0488
1492.00,0.0480
1491.00,0.0473
1490.00,0.0466
1489.00,0.0461
1488.00,0.0456
1487.00,0.0452
1486.00,0.0449
1485.00,0.0448
1484.00,0.0448
1483.00,0.0449
1482.00,0.0451
1481.00,0.0454
1480.00,0.0458
1479.00,0.0463
1478.00,0.0470
1477.00,0.0481
1476.00,0.0497
1475.00,0.0524
1474.00,0.0568
1473.00,0.0636
1472.00,0.0718
1471.00,0.0796
1470.00,0.0857
1469.00,0.0899
1468.00,0.0927
1467.00,0.0941
1466.00,0.0939
1465.00,0.0920
1464.00,0.0891
1463.00,0.0865
1462.00,0.0848
1461.00,0.0838
1460.00,0.0834
1459.00,0.0833
1458.00,0.0833
1457.00,0.0829
1456.00,0.0825
1455.00,0.0823
1454.00,0.0819
1453.00,0.0814
1452.00,0.0808
1451.00,0.0806
1450.00,0.0808
1449.00,0.0817
1448.00,0.0833
1447.00,0.0858
1446.00,0.0889
1445.00,0.0925
1444.00,0.0966
1443.00,0.1012
1442.00,0.1064
1441.00,0.1120
1440.00,0.1178
1439.00,0.1241
1438.00,0.1319
1437.00,0.1424
1436.00,0.1544
1435.00,0.1660
1434.00,0.1763
1433.00,0.1858
1432.00,0.1950
1431.00,0.2035
1430.00,0.2109
1429.00,0.2168
1428.00,0.2210
1427.00,0.2232
1426.00,0.2239
1425.00,0.2234
1424.00,0.2217
1423.00,0.2188
1422.00,0.2151
1421.00,0.2114
1420.00,0.2080
1419.00,0.2053
1418.00,0.2037
1417.00,0.2039
1416.00,0.2055
1415.00,0.2085
1414.00,0.2126
1413.00,0.2171
1412.00,0.2202
1411.00,0.2201
1410.00,0.2163
1409.00,0.2099
1408.00,0.2018
1407.00,0.1928
1406.00,0.1836
1405.00,0.1746
1404.00,0.1661
1403.00,0.1583
1402.00,0.1513
1401.00,0.1450
1400.00,0.1390
1399.00,0.1335
1398.00,0.1285
1397.00,0.1242
1396.00,0.1203
1395.00,0.1167
1394.00,0.1141
1393.00,0.1127
1392.00,0.1125
1391.00,0.1125
1390.00,0.1119
1389.00,0.1100
1388.00,0.1070
1387.00,0.1038
1386.00,0.1012
1385.00,0.0991
1384.00,0.0972
1383.00,0.0954
1382.00,0.0940
1381.00,0.0928
1380.00,0.0918
1379.00,0.0907
1378.00,0.0894
1377.00,0.0878
1376.00,0.0861
1375.00,0.0843
1374.00,0.0826
1373.00,0.0810
1372.00,0.0795
1371.00,0.0781
1370.00,0.0768
1369.00,0.0756
1368.00,0.0745
1367.00,0.0736
1366.00,0.0728
1365.00,0.0722
1364.00,0.0718
1363.00,0.0716
1362.00,0.0715
1361.00,0.0714
1360.00,0.0713
1359.00,0.0714
1358.00,0.0718
1357.00,0.0726
1356.00,0.0735
1355.00,0.0744
1354.00,0.0750
1353.00,0.0750
1352.00,0.0744
1351.00,0.0732
1350.00,0.0716
1349.00,0.0698
1348.00,0.0678
1347.00,0.0659
1346.00,0.0642
1345.00,0.0627
1344.00,0.0614
1343.00,0.0604
1342.00,0.0597
1341.00,0.0592
1340.00,0.0589
1339.00,0.0590
1338.00,0.0594
1337.00,0.0604
1336.00,0.0618
1335.00,0.0639
1334.00,0.0666
1333.00,0.0701
1332.00,0.0744
1331.00,0.0794
1330.00,0.0848
1329.00,0.0902
1328.00,0.0952
1327.00,0.0996
1326.00,0.1036
1325.00,0.1071
1324.00,0.1102
1323.00,0.1130
1322.00,0.1153
1321.00,0.1167
1320.00,0.1170
1319.00,0.1162
1318.00,0.1144
1317.00,0.1122
1316.00,0.1099
1315.00,0.1078
1314.00,0.1063
1313.00,0.1052
1312.00,0.1046
1311.00,0.1042
1310.00,0.1041
1309.00,0.1042
1308.00,0.1046
1307.00,0.1055
1306.00,0.1069
1305.00,0.1090
1304.00,0.1120
1303.00,0.1159
1302.00,0.1204
1301.00,0.1254
1300.00,0.1305
1299.00,0.1354
1298.00,0.1400
1297.00,0.1442
1296.00,0.1476
1295.00,0.1501
1294.00,0.1517
1293.00,0.1527
1292.00,0.1533
1291.00,0.1538
1290.00,0.1548
1289.00,0.1565
1288.00,0.1595
1287.00,0.1639
1286.00,0.1698
1285.00,0.1771
1284.00,0.1853
1283.00,0.1941
1282.00,0.2030
1281.00,0.2118
1280.00,0.2204
1279.00,0.2284
1278.00,0.2358
1277.00,0.2426
1276.00,0.2488
1275.00,0.2543
1274.00,0.2590
1273.00,0.2624
1272.00,0.2646
1271.00,0.2658
1270.00,0.2669
1269.00,0.2685
1268.00,0.2703
1267.00,0.2717
1266.00,0.2714
1265.00,0.2684
1264.00,0.2625
1263.00,0.2541
1262.00,0.2438
1261.00,0.2325
1260.00,0.2207
1259.00,0.2087
1258.00,0.1968
1257.00,0.1855
1256.00,0.1750
1255.00,0.1655
1254.00,0.1570
1253.00,0.1493
1252.00,0.1425
1251.00,0.1366
1250.00,0.1317
1249.00,0.1280
1248.00,0.1254
1247.00,0.1240
1246.00,0.1238
1245.00,0.1247
1244.00,0.1267
1243.00,0.1301
1242.00,0.1348
1241.00,0.1410
1240.00,0.1487
1239.00,0.1579
1238.00,0.1684
1237.00,0.1803
1236.00,0.1936
1235.00,0.2080
1234.00,0.2230
1233.00,0.2373
1232.00,0.2491
1231.00,0.2567
1230.00,0.2596
1229.00,0.2586
1228.00,0.2550
1227.00,0.2503
1226.00,0.2453
1225.00,0.2403
1224.00,0.2351
1223.00,0.2296
1222.00,0.2238
1221.00,0.2182
1220.00,0.2134
1219.00,0.2099
1218.00,0.2081
1217.00,0.2080
1216.00,0.2090
1215.00,0.2106
1214.00,0.2121
1213.00,0.2131
1212.00,0.2131
1211.00,0.2120
1210.00,0.2095
1209.00,0.2061
1208.00,0.2020
1207.00,0.1980
1206.00,0.1946
1205.00,0.1922
1204.00,0.1914
1203.00,0.1926
1202.00,0.1959
1201.00,0.2007
1200.00,0.2056
1199.00,0.2089
1198.00,0.2097
1197.00,0.2084
1196.00,0.2059
1195.00,0.2027
1194.00,0.1987
1193.00,0.1938
1192.00,0.1877
1191.00,0.1809
1190.00,0.1740
1189.00,0.1675
1188.00,0.1618
1187.00,0.1568
1186.00,0.1524
1185.00,0.1487
1184.00,0.1454
1183.00,0.1424
1182.00,0.1398
1181.00,0.1374
1180.00,0.1353
1179.00,0.1334
1178.00,0.1317
1177.00,0.1302
1176.00,0.1287
1175.00,0.1272
1174.00,0.1257
1173.00,0.1243
1172.00,0.1230
1171.00,0.1218
1170.00,0.1207
1169.00,0.1196
1168.00,0.1186
1167.00,0.1176
1166.00,0.1166
1165.00,0.1156
1164.00,0.1145
1163.00,0.1135
1162.00,0.1125
1161.00,0.1114
1160.00,0.1103
1159.00,0.1093
1158.00,0.1082
1157.00,0.1071
1156.00,0.1060
1155.00,0.1048
1154.00,0.1037
1153.00,0.1025
1152.00,0.1014
1151.00,0.1002
1150.00,0.0991
1149.00,0.0980
1148.00,0.0969
1147.00,0.0959
1146.00,0.0951
1145.00,0.0945
1144.00,0.0942
1143.00,0.0940
1142.00,0.0937
1141.00,0.0931
1140.00,0.0921
1139.00,0.0910
1138.00,0.0900
1137.00,0.0890
1136.00,0.0882
1135.00,0.0873
1134.00,0.0867
1133.00,0.0865
1132.00,0.0868
1131.00,0.0879
1130.00,0.0899
1129.00,0.0925
1128.00,0.0950
1127.00,0.0967
1126.00,0.0978
1125.00,0.0988
1124.00,0.0999
1123.00,0.1008
1122.00,0.1009
1121.00,0.0999
1120.00,0.0982
1119.00,0.0963
1118.00,0.0949
1117.00,0.0937
1116.00,0.0928
1115.00,0.0920
1114.00,0.0914
1113.00,0.0907
1112.00,0.0900
1111.00,0.0893
1110.00,0.0887
1109.00,0.0879
1108.00,0.0871
1107.00,0.0862
1106.00,0.0853
1105.00,0.0843
1104.00,0.0834
1103.00,0.0825
1102.00,0.0817
1101.00,0.0810
1100.00,0.0802
1099.00,0.0795
1098.00,0.0789
1097.00,0.0784
1096.00,0.0779
1095.00,0.0774
1094.00,0.0770
1093.00,0.0766
1092.00,0.0763
1091.00,0.0760
1090.00,0.0757
1089.00,0.0756
1088.00,0.0753
1087.00,0.0751
1086.00,0.0748
1085.00,0.0746
1084.00,0.0745
1083.00,0.0745
1082.00,0.0746
1081.00,0.0751
1080.00,0.0759
1079.00,0.0772
1078.00,0.0791
1077.00,0.0814
1076.00,0.0834
1075.00,0.0845
1074.00,0.0844
1073.00,0.0831
1072.00,0.0812
1071.00,0.0793
1070.00,0.0777
1069.00,0.0765
1068.00,0.0757
1067.00,0.0751
1066.00,0.0748
1065.00,0.0748
1064.00,0.0748
1063.00,0.0751
1062.00,0.0755
1061.00,0.0758
1060.00,0.0761
1059.00,0.0761
1058.00,0.0761
1057.00,0.0760
1056.00,0.0758
1055.00,0.0755
1054.00,0.0751
1053.00,0.0745
1052.00,0.0739
1051.00,0.0732
1050.00,0.0727
1049.00,0.0722
1048.00,0.0718
1047.00,0.0715
1046.00,0.0712
1045.00,0.0710
1044.00,0.0708
1043.00,0.0706
1042.00,0.0706
1041.00,0.0705
1040.00,0.0705
1039.00,0.0704
1038.00,0.0704
1037.00,0.0704
1036.00,0.0705
1035.00,0.0705
1034.00,0.0707
1033.00,0.0708
1032.00,0.0710
1031.00,0.0711
1030.00,0.0714
1029.00,0.0717
1028.00,0.0720
1027.00,0.0725
1026.00,0.0731
1025.00,0.0738
1024.00,0.0747
1023.00,0.0758
1022.00,0.0771
1021.00,0.0788
1020.00,0.0812
1019.00,0.0846
1018.00,0.0895
1017.00,0.0961
1016.00,0.1042
1015.00,0.1136
1014.00,0.1237
1013.00,0.1334
1012.00,0.1419
1011.00,0.1487
1010.00,0.1535
1009.00,0.1568
1008.00,0.1586
1007.00,0.1586
1006.00,0.1569
1005.00,0.1543
1004.00,0.1523
1003.00,0.1517
1002.00,0.1526
1001.00,0.1541
1000.00,0.1548
999.00,0.1541
998.00,0.1516
997.00,0.1477
996.00,0.1427
995.00,0.1372
994.00,0.1316
993.00,0.1264
992.00,0.1216
991.00,0.1176
990.00,0.1142
989.00,0.1115
988.00,0.1092
987.00,0.1075
986.00,0.1061
985.00,0.1050
984.00,0.1044
983.00,0.1041
982.00,0.1043
981.00,0.1047
980.00,0.1051
979.00,0.1053
978.00,0.1056
977.00,0.1060
976.00,0.1067
975.00,0.1076
974.00,0.1090
973.00,0.1106
972.00,0.1124
971.00,0.1143
970.00,0.1161
969.00,0.1179
968.00,0.1195
967.00,0.1212
966.00,0.1231
965.00,0.1255
964.00,0.1284
963.00,0.1322
962.00,0.1368
961.00,0.1421
960.00,0.1474
959.00,0.1521
958.00,0.1555
957.00,0.1576
956.00,0.1587
955.00,0.1594
954.00,0.1602
953.00,0.1614
952.00,0.1628
951.00,0.1645
950.00,0.1664
949.00,0.1683
948.00,0.1702
947.00,0.1722
946.00,0.1742
945.00,0.1765
944.00,0.1790
943.00,0.1818
942.00,0.1852
941.00,0.1889
940.00,0.1932
939.00,0.1980
938.00,0.2033
937.00,0.2090
936.00,0.2149
935.00,0.2208
934.00,0.2264
933.00,0.2315
932.00,0.2358
931.00,0.2392
930.00,0.2417
929.00,0.2434
928.00,0.2444
927.00,0.2449
926.00,0.2449
925.00,0.2447
924.00,0.2443
923.00,0.2437
922.00,0.2431
921.00,0.2425
920.00,0.2419
919.00,0.2413
918.00,0.2405
917.00,0.2394
916.00,0.2379
915.00,0.2359
914.00,0.2337
913.00,0.2318
912.00,0.2305
911.00,0.2301
910.00,0.2305
909.00,0.2314
908.00,0.2325
907.00,0.2336
906.00,0.2346
905.00,0.2356
904.00,0.2364
903.00,0.2370
902.00,0.2375
901.00,0.2378
900.00,0.2379
899.00,0.2379
898.00,0.2379
897.00,0.2378
896.00,0.2377
895.00,0.2375
894.00,0.2373
893.00,0.2371
892.00,0.2369
891.00,0.2367
890.00,0.2363
889.00,0.2356
888.00,0.2342
887.00,0.2319
886.00,0.2290
885.00,0.2257
884.00,0.2224
883.00,0.2194
882.00,0.2169
881.00,0.2150
880.00,0.2139
879.00,0.2135
878.00,0.2136
877.00,0.2140
876.00,0.2143
875.00,0.2144
874.00,0.2143
873.00,0.2139
872.00,0.2132
871.00,0.2124
870.00,0.2116
869.00,0.2108
868.00,0.2101
867.00,0.2099
866.00,0.2102
865.00,0.2108
864.00,0.2114
863.00,0.2117
862.00,0.2114
861.00,0.2105
860.00,0.2090
859.00,0.2071
858.00,0.2052
857.00,0.2033
856.00,0.2014
855.00,0.1995
854.00,0.1978
853.00,0.1960
852.00,0.1942
851.00,0.1924
850.00,0.1906
849.00,0.1890
848.00,0.1877
847.00,0.1869
846.00,0.1866
845.00,0.1860
844.00,0.1846
843.00,0.1822
842.00,0.1794
841.00,0.1767
840.00,0.1743
839.00,0.1721
838.00,0.1701
837.00,0.1682
836.00,0.1664
835.00,0.1646
834.00,0.1630
833.00,0.1615
832.00,0.1601
831.00,0.1588
830.00,0.1577
829.00,0.1570
828.00,0.1567
827.00,0.1568
826.00,0.1571
825.00,0.1570
824.00,0.1559
823.00,0.1537
822.00,0.1505
821.00,0.1471
820.00,0.1438
819.00,0.1409
818.00,0.1383
817.00,0.1361
816.00,0.1341
815.00,0.1323
814.00,0.1305
813.00,0.1289
812.00,0.1273
811.00,0.1259
810.00,0.1245
809.00,0.1231
808.00,0.1219
807.00,0.1206
806.00,0.1194
805.00,0.1182
804.00,0.1170
803.00,0.1159
802.00,0.1150
801.00,0.1144
800.00,0.1143
799.00,0.1147
798.00,0.1152
797.00,0.1153
796.00,0.1154
795.00,0.1162
794.00,0.1187
793.00,0.1239
792.00,0.1314
791.00,0.1406
790.00,0.1510
789.00,0.1625
788.00,0.1760
787.00,0.1922
786.00,0.2106
785.00,0.2295
784.00,0.2461
783.00,0.2572
782.00,0.2609
781.00,0.2571
780.00,0.2469
779.00,0.2325
778.00,0.2158
777.00,0.1987
776.00,0.1828
775.00,0.1692
774.00,0.1584
773.00,0.1503
772.00,0.1443
771.00,0.1399
770.00,0.1365
769.00,0.1336
768.00,0.1309
767.00,0.1284
766.00,0.1260
765.00,0.1236
764.00,0.1214
763.00,0.1195
762.00,0.1177
761.00,0.1160
760.00,0.1144
759.00,0.1128
758.00,0.1112
757.00,0.1096
756.00,0.1081
755.00,0.1067
754.00,0.1055
753.00,0.1044
752.00,0.1035
751.00,0.1027
750.00,0.1020
749.00,0.1014
748.00,0.1010
747.00,0.1009
746.00,0.1012
745.00,0.1020
744.00,0.1032
743.00,0.1040
742.00,0.1037
741.00,0.1020
740.00,0.0990
739.00,0.0959
738.00,0.0933
737.00,0.0916
736.00,0.0907
735.00,0.0902
734.00,0.0903
733.00,0.0907
732.00,0.0918
731.00,0.0936
730.00,0.0963
729.00,0.0999
728.00,0.1044
727.00,0.1098
726.00,0.1158
725.00,0.1218
724.00,0.1269
723.00,0.1301
722.00,0.1303
721.00,0.1271
720.00,0.1209
719.00,0.1133
718.00,0.1059
717.00,0.0995
716.00,0.0943
715.00,0.0900
714.00,0.0865
713.00,0.0835
712.00,0.0809
711.00,0.0784
710.00,0.0763
709.00,0.0743
708.00,0.0724
707.00,0.0707
706.00,0.0692
705.00,0.0680
704.00,0.0669
703.00,0.0660
702.00,0.0652
701.00,0.0647
700.00,0.0643
699.00,0.0641
698.00,0.0641
697.00,0.0644
696.00,0.0647
695.00,0.0652
694.00,0.0658
693.00,0.0667
692.00,0.0678
691.00,0.0692
690.00,0.0708
689.00,0.0726
688.00,0.0743
687.00,0.0756
686.00,0.0763
685.00,0.0764
684.00,0.0758
683.00,0.0747
682.00,0.0733
681.00,0.0718
680.00,0.0702
679.00,0.0685
678.00,0.0670
677.00,0.0654
676.00,0.0639
675.00,0.0625
674.00,0.0612
673.00,0.0600
672.00,0.0588
671.00,0.0576
670.00,0.0567
669.00,0.0559
668.00,0.0552
667.00,0.0545
666.00,0.0536
665.00,0.0529
664.00,0.0525
663.00,0.0524
662.00,0.0526
661.00,0.0531
660.00,0.0542
659.00,0.0558
658.00,0.0584
657.00,0.0622
656.00,0.0680
655.00,0.0764
654.00,0.0880
653.00,0.1031
652.00,0.1216
651.00,0.1424
650.00,0.1643
649.00,0.1857
648.00,0.2051
647.00,0.2207
646.00,0.2312
645.00,0.2362
644.00,0.2364
643.00,0.2326
642.00,0.2259
641.00,0.2178
640.00,0.2093
639.00,0.2008
638.00,0.1924
637.00,0.1844
636.00,0.1769
635.00,0.1699
634.00,0.1628
633.00,0.1558
632.00,0.1488
631.00,0.1417
630.00,0.1347
629.00,0.1279
628.00,0.1216
627.00,0.1159
626.00,0.1107
625.00,0.1064
624.00,0.1028
623.00,0.0998
622.00,0.0976
621.00,0.0969
620.00,0.0982
619.00,0.1009
618.00,0.1034
617.00,0.1038
616.00,0.1018
615.00,0.0986
614.00,0.0955
613.00,0.0931
612.00,0.0913
611.00,0.0899
610.00,0.0888
609.00,0.0879
608.00,0.0870
607.00,0.0861
606.00,0.0850
605.00,0.0840
604.00,0.0830
603.00,0.0819
602.00,0.0809
601.00,0.0800
600.00,0.0794
599.00,0.0792
598.00,0.0795
597.00,0.0804
596.00,0.0818
595.00,0.0837
594.00,0.0860
593.00,0.0890
592.00,0.0927
591.00,0.0976
590.00,0.1039
589.00,0.1118
588.00,0.1214
587.00,0.1327
586.00,0.1453
585.00,0.1588
584.00,0.1725
583.00,0.1854
582.00,0.1965
581.00,0.2054
580.00,0.2117
579.00,0.2151
578.00,0.2160
577.00,0.2149
576.00,0.2123
575.00,0.2085
574.00,0.2039
573.00,0.1989
572.00,0.1937
571.00,0.1885
570.00,0.1833
569.00,0.1783
568.00,0.1736
567.00,0.1692
566.00,0.1651
565.00,0.1613
564.00,0.1577
563.00,0.1540
562.00,0.1504
561.00,0.1471
560.00,0.1441
559.00,0.1412
558.00,0.1385
557.00,0.1360
556.00,0.1336
555.00,0.1315
554.00,0.1295
553.00,0.1278
552.00,0.1263
551.00,0.1251
550.00,0.1240
549.00,0.1232
548.00,0.1225
547.00,0.1219
546.00,0.1212
545.00,0.1204
544.00,0.1195
543.00,0.1184
542.00,0.1172
541.00,0.1156
540.00,0.1136
539.00,0.1112
538.00,0.1086
537.00,0.1059
536.00,0.1033
535.00,0.1008
534.00,0.0984
533.00,0.0963
532.00,0.0943
531.00,0.0924
530.00,0.0906
529.00,0.0887
528.00,0.0869
527.00,0.0853
526.00,0.0840
525.00,0.0829
524.00,0.0820
523.00,0.0810
522.00,0.0801
521.00,0.0792
520.00,0.0784
519.00,0.0776
518.00,0.0769
517.00,0.0762
516.00,0.0757
515.00,0.0752
514.00,0.0748
513.00,0.0745
512.00,0.0741
511.00,0.0736
510.00,0.0731
509.00,0.0728
508.00,0.0725
507.00,0.0724
506.00,0.0723
505.00,0.0721
504.00,0.0717
503.00,0.0714
502.00,0.0713
501.00,0.0713
500.00,0.0713
499.00,0.0713
498.00,0.0712
497.00,0.0711
496.00,0.0711
495.00,0.0712
494.00,0.0715
493.00,0.0717
492.00,0.0719
491.00,0.0723
490.00,0.0732
489.00,0.0748
488.00,0.0772
487.00,0.0808
486.00,0.0854
485.00,0.0911
484.00,0.0976
483.00,0.1046
482.00,0.1118
481.00,0.1186
480.00,0.1252
479.00,0.1321
478.00,0.1388
477.00,0.1433
476.00,0.1434
475.00,0.1391
474.00,0.1326
473.00,0.1267
472.00,0.1221
471.00,0.1178
470.00,0.1133
469.00,0.1088
468.00,0.1054
467.00,0.1034
466.00,0.1025
465.00,0.1022
464.00,0.1020
463.00,0.1020
462.00,0.1023
461.00,0.1029
460.00,0.1038
459.00,0.1055
458.00,0.1080
457.00,0.1113
456.00,0.1151
455.00,0.1192
454.00,0.1233
453.00,0.1274
452.00,0.1312
451.00,0.1344
450.00,0.1364
449.00,0.1374
448.00,0.1371
447.00,0.1357
446.00,0.1333
445.00,0.1303
444.00,0.1269
443.00,0.1233
442.00,0.1197
441.00,0.1165
440.00,0.1134
439.00,0.1105
438.00,0.1076
437.00,0.1048
436.00,0.1023
435.00,0.1000
434.00,0.0978
433.00,0.0957
432.00,0.0934
431.00,0.0910
430.00,0.0888
429.00,0.0867
428.00,0.0847
427.00,0.0827
426.00,0.0807
425.00,0.0787
424.00,0.0768
423.00,0.0753
422.00,0.0742
421.00,0.0732
420.00,0.0721
419.00,0.0713
418.00,0.0715
417.00,0.0726
416.00,0.0738
415.00,0.0744
414.00,0.0742
413.00,0.0737
412.00,0.0733
411.00,0.0736
410.00,0.0747
409.00,0.0764
408.00,0.0782
407.00,0.0801
406.00,0.0815
405.00,0.0817
404.00,0.0810
403.00,0.0797
402.00,0.0782
401.00,0.0758
400.00,0.0728
