Created as New Dataset,Sample 855 By YargerLab Date Saturday, April 18 2026
cm-1,A
4000.00,0.0056
3999.00,0.0056
3998.00,0.0056
3997.00,0.0056
3996.00,0.0056
3995.00,0.0056
3994.00,0.0056
3993.00,0.0056
3992.00,0.0056
3991.00,0.0056
3990.00,0.0056
3989.00,0.0056
3988.00,0.0056
3987.00,0.0056
3986.00,0.0056
3985.00,0.0056
3984.00,0.0056
3983.00,0.0056
3982.00,0.0056
3981.00,0.0056
3980.00,0.0056
3979.00,0.0056
3978.00,0.0056
3977.00,0.0056
3976.00,0.0056
3975.00,0.0056
3974.00,0.0056
3973.00,0.0056
3972.00,0.0056
3971.00,0.0056
3970.00,0.0056
3969.00,0.0056
3968.00,0.0056
3967.00,0.0055
3966.00,0.0055
3965.00,0.0055
3964.00,0.0055
3963.00,0.0055
3962.00,0.0055
3961.00,0.0055
3960.00,0.0055
3959.00,0.0055
3958.00,0.0055
3957.00,0.0055
3956.00,0.0055
3955.00,0.0054
3954.00,0.0054
3953.00,0.0054
3952.00,0.0054
3951.00,0.0054
3950.00,0.0054
3949.00,0.0054
3948.00,0.0054
3947.00,0.0054
3946.00,0.0054
3945.00,0.0054
3944.00,0.0054
3943.00,0.0054
3942.00,0.0054
3941.00,0.0054
3940.00,0.0054
3939.00,0.0054
3938.00,0.0054
3937.00,0.0054
3936.00,0.0054
3935.00,0.0054
3934.00,0.0053
3933.00,0.0053
3932.00,0.0053
3931.00,0.0053
3930.00,0.0053
3929.00,0.0053
3928.00,0.0053
3927.00,0.0054
3926.00,0.0054
3925.00,0.0054
3924.00,0.0053
3923.00,0.0053
3922.00,0.0053
3921.00,0.0053
3920.00,0.0053
3919.00,0.0053
3918.00,0.0053
3917.00,0.0053
3916.00,0.0053
3915.00,0.0053
3914.00,0.0053
3913.00,0.0052
3912.00,0.0052
3911.00,0.0053
3910.00,0.0053
3909.00,0.0053
3908.00,0.0052
3907.00,0.0052
3906.00,0.0052
3905.00,0.0052
3904.00,0.0052
3903.00,0.0051
3902.00,0.0051
3901.00,0.0051
3900.00,0.0051
3899.00,0.0051
3898.00,0.0050
3897.00,0.0050
3896.00,0.0051
3895.00,0.0051
3894.00,0.0051
3893.00,0.0051
3892.00,0.0051
3891.00,0.0051
3890.00,0.0051
3889.00,0.0051
3888.00,0.0051
3887.00,0.0051
3886.00,0.0051
3885.00,0.0051
3884.00,0.0051
3883.00,0.0051
3882.00,0.0051
3881.00,0.0051
3880.00,0.0051
3879.00,0.0051
3878.00,0.0051
3877.00,0.0051
3876.00,0.0051
3875.00,0.0051
3874.00,0.0051
3873.00,0.0051
3872.00,0.0051
3871.00,0.0051
3870.00,0.0051
3869.00,0.0051
3868.00,0.0051
3867.00,0.0051
3866.00,0.0051
3865.00,0.0051
3864.00,0.0051
3863.00,0.0051
3862.00,0.0050
3861.00,0.0050
3860.00,0.0050
3859.00,0.0050
3858.00,0.0051
3857.00,0.0051
3856.00,0.0051
3855.00,0.0050
3854.00,0.0050
3853.00,0.0050
3852.00,0.0050
3851.00,0.0050
3850.00,0.0050
3849.00,0.0050
3848.00,0.0050
3847.00,0.0050
3846.00,0.0050
3845.00,0.0050
3844.00,0.0050
3843.00,0.0050
3842.00,0.0050
3841.00,0.0050
3840.00,0.0050
3839.00,0.0050
3838.00,0.0050
3837.00,0.0050
3836.00,0.0049
3835.00,0.0049
3834.00,0.0049
3833.00,0.0049
3832.00,0.0050
3831.00,0.0050
3830.00,0.0050
3829.00,0.0050
3828.00,0.0050
3827.00,0.0050
3826.00,0.0050
3825.00,0.0050
3824.00,0.0049
3823.00,0.0049
3822.00,0.0049
3821.00,0.0049
3820.00,0.0049
3819.00,0.0049
3818.00,0.0049
3817.00,0.0049
3816.00,0.0049
3815.00,0.0049
3814.00,0.0049
3813.00,0.0049
3812.00,0.0049
3811.00,0.0049
3810.00,0.0049
3809.00,0.0048
3808.00,0.0048
3807.00,0.0048
3806.00,0.0048
3805.00,0.0048
3804.00,0.0048
3803.00,0.0048
3802.00,0.0048
3801.00,0.0048
3800.00,0.0048
3799.00,0.0048
3798.00,0.0048
3797.00,0.0048
3796.00,0.0048
3795.00,0.0048
3794.00,0.0048
3793.00,0.0048
3792.00,0.0048
3791.00,0.0048
3790.00,0.0048
3789.00,0.0048
3788.00,0.0048
3787.00,0.0048
3786.00,0.0048
3785.00,0.0048
3784.00,0.0048
3783.00,0.0048
3782.00,0.0048
3781.00,0.0048
3780.00,0.0048
3779.00,0.0048
3778.00,0.0048
3777.00,0.0048
3776.00,0.0048
3775.00,0.0048
3774.00,0.0048
3773.00,0.0048
3772.00,0.0048
3771.00,0.0048
3770.00,0.0048
3769.00,0.0047
3768.00,0.0047
3767.00,0.0047
3766.00,0.0047
3765.00,0.0048
3764.00,0.0048
3763.00,0.0047
3762.00,0.0047
3761.00,0.0047
3760.00,0.0047
3759.00,0.0047
3758.00,0.0047
3757.00,0.0047
3756.00,0.0047
3755.00,0.0047
3754.00,0.0047
3753.00,0.0047
3752.00,0.0047
3751.00,0.0047
3750.00,0.0047
3749.00,0.0046
3748.00,0.0046
3747.00,0.0046
3746.00,0.0045
3745.00,0.0046
3744.00,0.0046
3743.00,0.0046
3742.00,0.0046
3741.00,0.0045
3740.00,0.0045
3739.00,0.0045
3738.00,0.0045
3737.00,0.0044
3736.00,0.0044
3735.00,0.0044
3734.00,0.0044
3733.00,0.0044
3732.00,0.0044
3731.00,0.0044
3730.00,0.0044
3729.00,0.0044
3728.00,0.0044
3727.00,0.0044
3726.00,0.0044
3725.00,0.0045
3724.00,0.0045
3723.00,0.0045
3722.00,0.0044
3721.00,0.0044
3720.00,0.0044
3719.00,0.0044
3718.00,0.0044
3717.00,0.0044
3716.00,0.0044
3715.00,0.0044
3714.00,0.0044
3713.00,0.0044
3712.00,0.0043
3711.00,0.0043
3710.00,0.0043
3709.00,0.0043
3708.00,0.0043
3707.00,0.0043
3706.00,0.0043
3705.00,0.0043
3704.00,0.0042
3703.00,0.0042
3702.00,0.0042
3701.00,0.0042
3700.00,0.0042
3699.00,0.0042
3698.00,0.0042
3697.00,0.0042
3696.00,0.0042
3695.00,0.0042
3694.00,0.0042
3693.00,0.0042
3692.00,0.0042
3691.00,0.0042
3690.00,0.0042
3689.00,0.0042
3688.00,0.0042
3687.00,0.0042
3686.00,0.0042
3685.00,0.0042
3684.00,0.0042
3683.00,0.0042
3682.00,0.0042
3681.00,0.0042
3680.00,0.0042
3679.00,0.0041
3678.00,0.0041
3677.00,0.0041
3676.00,0.0041
3675.00,0.0040
3674.00,0.0040
3673.00,0.0040
3672.00,0.0040
3671.00,0.0040
3670.00,0.0040
3669.00,0.0040
3668.00,0.0040
3667.00,0.0040
3666.00,0.0040
3665.00,0.0040
3664.00,0.0040
3663.00,0.0040
3662.00,0.0040
3661.00,0.0040
3660.00,0.0040
3659.00,0.0040
3658.00,0.0040
3657.00,0.0040
3656.00,0.0040
3655.00,0.0040
3654.00,0.0039
3653.00,0.0039
3652.00,0.0039
3651.00,0.0039
3650.00,0.0039
3649.00,0.0039
3648.00,0.0039
3647.00,0.0039
3646.00,0.0039
3645.00,0.0039
3644.00,0.0040
3643.00,0.0040
3642.00,0.0040
3641.00,0.0040
3640.00,0.0040
3639.00,0.0040
3638.00,0.0039
3637.00,0.0039
3636.00,0.0039
3635.00,0.0039
3634.00,0.0040
3633.00,0.0040
3632.00,0.0040
3631.00,0.0040
3630.00,0.0040
3629.00,0.0040
3628.00,0.0040
3627.00,0.0040
3626.00,0.0040
3625.00,0.0040
3624.00,0.0041
3623.00,0.0041
3622.00,0.0041
3621.00,0.0041
3620.00,0.0042
3619.00,0.0042
3618.00,0.0042
3617.00,0.0042
3616.00,0.0042
3615.00,0.0042
3614.00,0.0042
3613.00,0.0042
3612.00,0.0042
3611.00,0.0042
3610.00,0.0043
3609.00,0.0043
3608.00,0.0044
3607.00,0.0044
3606.00,0.0044
3605.00,0.0044
3604.00,0.0044
3603.00,0.0045
3602.00,0.0045
3601.00,0.0045
3600.00,0.0045
3599.00,0.0046
3598.00,0.0046
3597.00,0.0047
3596.00,0.0047
3595.00,0.0047
3594.00,0.0047
3593.00,0.0048
3592.00,0.0048
3591.00,0.0048
3590.00,0.0049
3589.00,0.0050
3588.00,0.0050
3587.00,0.0051
3586.00,0.0052
3585.00,0.0053
3584.00,0.0054
3583.00,0.0055
3582.00,0.0056
3581.00,0.0057
3580.00,0.0058
3579.00,0.0059
3578.00,0.0060
3577.00,0.0061
3576.00,0.0062
3575.00,0.0063
3574.00,0.0065
3573.00,0.0066
3572.00,0.0068
3571.00,0.0069
3570.00,0.0071
3569.00,0.0072
3568.00,0.0074
3567.00,0.0076
3566.00,0.0077
3565.00,0.0079
3564.00,0.0081
3563.00,0.0082
3562.00,0.0084
3561.00,0.0085
3560.00,0.0087
3559.00,0.0089
3558.00,0.0091
3557.00,0.0093
3556.00,0.0095
3555.00,0.0097
3554.00,0.0099
3553.00,0.0102
3552.00,0.0105
3551.00,0.0108
3550.00,0.0112
3549.00,0.0116
3548.00,0.0120
3547.00,0.0126
3546.00,0.0132
3545.00,0.0138
3544.00,0.0145
3543.00,0.0153
3542.00,0.0162
3541.00,0.0172
3540.00,0.0183
3539.00,0.0195
3538.00,0.0209
3537.00,0.0225
3536.00,0.0242
3535.00,0.0262
3534.00,0.0282
3533.00,0.0305
3532.00,0.0330
3531.00,0.0356
3530.00,0.0383
3529.00,0.0411
3528.00,0.0438
3527.00,0.0465
3526.00,0.0490
3525.00,0.0511
3524.00,0.0530
3523.00,0.0543
3522.00,0.0552
3521.00,0.0557
3520.00,0.0556
3519.00,0.0551
3518.00,0.0543
3517.00,0.0531
3516.00,0.0516
3515.00,0.0499
3514.00,0.0481
3513.00,0.0463
3512.00,0.0444
3511.00,0.0425
3510.00,0.0406
3509.00,0.0389
3508.00,0.0373
3507.00,0.0358
3506.00,0.0345
3505.00,0.0332
3504.00,0.0321
3503.00,0.0311
3502.00,0.0301
3501.00,0.0293
3500.00,0.0286
3499.00,0.0280
3498.00,0.0274
3497.00,0.0270
3496.00,0.0266
3495.00,0.0263
3494.00,0.0260
3493.00,0.0258
3492.00,0.0257
3491.00,0.0256
3490.00,0.0255
3489.00,0.0255
3488.00,0.0255
3487.00,0.0255
3486.00,0.0256
3485.00,0.0256
3484.00,0.0257
3483.00,0.0258
3482.00,0.0260
3481.00,0.0261
3480.00,0.0263
3479.00,0.0264
3478.00,0.0266
3477.00,0.0268
3476.00,0.0269
3475.00,0.0271
3474.00,0.0273
3473.00,0.0275
3472.00,0.0278
3471.00,0.0280
3470.00,0.0282
3469.00,0.0285
3468.00,0.0287
3467.00,0.0290
3466.00,0.0292
3465.00,0.0295
3464.00,0.0298
3463.00,0.0301
3462.00,0.0304
3461.00,0.0308
3460.00,0.0311
3459.00,0.0315
3458.00,0.0319
3457.00,0.0323
3456.00,0.0327
3455.00,0.0330
3454.00,0.0335
3453.00,0.0339
3452.00,0.0343
3451.00,0.0348
3450.00,0.0353
3449.00,0.0359
3448.00,0.0365
3447.00,0.0371
3446.00,0.0377
3445.00,0.0383
3444.00,0.0390
3443.00,0.0397
3442.00,0.0403
3441.00,0.0411
3440.00,0.0418
3439.00,0.0426
3438.00,0.0434
3437.00,0.0443
3436.00,0.0452
3435.00,0.0461
3434.00,0.0471
3433.00,0.0481
3432.00,0.0490
3431.00,0.0500
3430.00,0.0510
3429.00,0.0521
3428.00,0.0530
3427.00,0.0540
3426.00,0.0549
3425.00,0.0558
3424.00,0.0567
3423.00,0.0574
3422.00,0.0581
3421.00,0.0587
3420.00,0.0593
3419.00,0.0597
3418.00,0.0601
3417.00,0.0604
3416.00,0.0607
3415.00,0.0609
3414.00,0.0610
3413.00,0.0612
3412.00,0.0613
3411.00,0.0614
3410.00,0.0614
3409.00,0.0615
3408.00,0.0616
3407.00,0.0617
3406.00,0.0618
3405.00,0.0620
3404.00,0.0622
3403.00,0.0623
3402.00,0.0625
3401.00,0.0626
3400.00,0.0627
3399.00,0.0627
3398.00,0.0627
3397.00,0.0626
3396.00,0.0625
3395.00,0.0624
3394.00,0.0623
3393.00,0.0621
3392.00,0.0619
3391.00,0.0616
3390.00,0.0613
3389.00,0.0610
3388.00,0.0606
3387.00,0.0603
3386.00,0.0600
3385.00,0.0596
3384.00,0.0593
3383.00,0.0590
3382.00,0.0586
3381.00,0.0583
3380.00,0.0580
3379.00,0.0577
3378.00,0.0575
3377.00,0.0572
3376.00,0.0570
3375.00,0.0568
3374.00,0.0566
3373.00,0.0564
3372.00,0.0562
3371.00,0.0561
3370.00,0.0559
3369.00,0.0557
3368.00,0.0556
3367.00,0.0554
3366.00,0.0553
3365.00,0.0551
3364.00,0.0550
3363.00,0.0549
3362.00,0.0548
3361.00,0.0547
3360.00,0.0546
3359.00,0.0545
3358.00,0.0544
3357.00,0.0544
3356.00,0.0543
3355.00,0.0542
3354.00,0.0542
3353.00,0.0541
3352.00,0.0541
3351.00,0.0541
3350.00,0.0540
3349.00,0.0539
3348.00,0.0537
3347.00,0.0536
3346.00,0.0535
3345.00,0.0534
3344.00,0.0533
3343.00,0.0531
3342.00,0.0530
3341.00,0.0529
3340.00,0.0527
3339.00,0.0525
3338.00,0.0524
3337.00,0.0521
3336.00,0.0519
3335.00,0.0517
3334.00,0.0515
3333.00,0.0513
3332.00,0.0511
3331.00,0.0509
3330.00,0.0507
3329.00,0.0505
3328.00,0.0503
3327.00,0.0501
3326.00,0.0499
3325.00,0.0496
3324.00,0.0494
3323.00,0.0492
3322.00,0.0489
3321.00,0.0487
3320.00,0.0486
3319.00,0.0484
3318.00,0.0482
3317.00,0.0480
3316.00,0.0478
3315.00,0.0477
3314.00,0.0475
3313.00,0.0473
3312.00,0.0472
3311.00,0.0470
3310.00,0.0469
3309.00,0.0468
3308.00,0.0466
3307.00,0.0465
3306.00,0.0463
3305.00,0.0461
3304.00,0.0460
3303.00,0.0458
3302.00,0.0456
3301.00,0.0455
3300.00,0.0453
3299.00,0.0452
3298.00,0.0450
3297.00,0.0449
3296.00,0.0448
3295.00,0.0447
3294.00,0.0446
3293.00,0.0444
3292.00,0.0443
3291.00,0.0441
3290.00,0.0440
3289.00,0.0439
3288.00,0.0437
3287.00,0.0436
3286.00,0.0435
3285.00,0.0433
3284.00,0.0432
3283.00,0.0431
3282.00,0.0430
3281.00,0.0429
3280.00,0.0429
3279.00,0.0428
3278.00,0.0427
3277.00,0.0426
3276.00,0.0425
3275.00,0.0424
3274.00,0.0423
3273.00,0.0422
3272.00,0.0421
3271.00,0.0420
3270.00,0.0419
3269.00,0.0418
3268.00,0.0417
3267.00,0.0415
3266.00,0.0414
3265.00,0.0413
3264.00,0.0412
3263.00,0.0411
3262.00,0.0410
3261.00,0.0409
3260.00,0.0408
3259.00,0.0408
3258.00,0.0407
3257.00,0.0406
3256.00,0.0405
3255.00,0.0404
3254.00,0.0404
3253.00,0.0403
3252.00,0.0402
3251.00,0.0401
3250.00,0.0400
3249.00,0.0399
3248.00,0.0398
3247.00,0.0398
3246.00,0.0397
3245.00,0.0396
3244.00,0.0395
3243.00,0.0394
3242.00,0.0393
3241.00,0.0392
3240.00,0.0392
3239.00,0.0391
3238.00,0.0391
3237.00,0.0390
3236.00,0.0390
3235.00,0.0389
3234.00,0.0389
3233.00,0.0388
3232.00,0.0387
3231.00,0.0387
3230.00,0.0386
3229.00,0.0386
3228.00,0.0385
3227.00,0.0385
3226.00,0.0384
3225.00,0.0384
3224.00,0.0383
3223.00,0.0383
3222.00,0.0382
3221.00,0.0382
3220.00,0.0382
3219.00,0.0382
3218.00,0.0381
3217.00,0.0381
3216.00,0.0381
3215.00,0.0381
3214.00,0.0381
3213.00,0.0381
3212.00,0.0381
3211.00,0.0380
3210.00,0.0380
3209.00,0.0380
3208.00,0.0380
3207.00,0.0379
3206.00,0.0379
3205.00,0.0379
3204.00,0.0379
3203.00,0.0379
3202.00,0.0379
3201.00,0.0379
3200.00,0.0379
3199.00,0.0379
3198.00,0.0379
3197.00,0.0379
3196.00,0.0379
3195.00,0.0379
3194.00,0.0378
3193.00,0.0378
3192.00,0.0378
3191.00,0.0377
3190.00,0.0377
3189.00,0.0377
3188.00,0.0377
3187.00,0.0377
3186.00,0.0377
3185.00,0.0377
3184.00,0.0376
3183.00,0.0375
3182.00,0.0375
3181.00,0.0374
3180.00,0.0374
3179.00,0.0373
3178.00,0.0373
3177.00,0.0372
3176.00,0.0372
3175.00,0.0371
3174.00,0.0370
3173.00,0.0369
3172.00,0.0369
3171.00,0.0368
3170.00,0.0368
3169.00,0.0367
3168.00,0.0366
3167.00,0.0365
3166.00,0.0364
3165.00,0.0363
3164.00,0.0362
3163.00,0.0361
3162.00,0.0360
3161.00,0.0359
3160.00,0.0357
3159.00,0.0356
3158.00,0.0355
3157.00,0.0354
3156.00,0.0353
3155.00,0.0351
3154.00,0.0350
3153.00,0.0348
3152.00,0.0347
3151.00,0.0346
3150.00,0.0344
3149.00,0.0343
3148.00,0.0341
3147.00,0.0340
3146.00,0.0339
3145.00,0.0337
3144.00,0.0336
3143.00,0.0334
3142.00,0.0333
3141.00,0.0332
3140.00,0.0330
3139.00,0.0329
3138.00,0.0327
3137.00,0.0326
3136.00,0.0324
3135.00,0.0322
3134.00,0.0320
3133.00,0.0319
3132.00,0.0317
3131.00,0.0315
3130.00,0.0314
3129.00,0.0312
3128.00,0.0310
3127.00,0.0309
3126.00,0.0308
3125.00,0.0306
3124.00,0.0305
3123.00,0.0304
3122.00,0.0302
3121.00,0.0300
3120.00,0.0299
3119.00,0.0297
3118.00,0.0295
3117.00,0.0294
3116.00,0.0292
3115.00,0.0290
3114.00,0.0288
3113.00,0.0287
3112.00,0.0285
3111.00,0.0283
3110.00,0.0282
3109.00,0.0280
3108.00,0.0279
3107.00,0.0277
3106.00,0.0275
3105.00,0.0273
3104.00,0.0271
3103.00,0.0269
3102.00,0.0268
3101.00,0.0266
3100.00,0.0265
3099.00,0.0263
3098.00,0.0261
3097.00,0.0259
3096.00,0.0258
3095.00,0.0256
3094.00,0.0254
3093.00,0.0253
3092.00,0.0251
3091.00,0.0250
3090.00,0.0248
3089.00,0.0246
3088.00,0.0245
3087.00,0.0243
3086.00,0.0242
3085.00,0.0240
3084.00,0.0239
3083.00,0.0237
3082.00,0.0236
3081.00,0.0234
3080.00,0.0232
3079.00,0.0231
3078.00,0.0229
3077.00,0.0228
3076.00,0.0226
3075.00,0.0224
3074.00,0.0223
3073.00,0.0221
3072.00,0.0220
3071.00,0.0218
3070.00,0.0217
3069.00,0.0215
3068.00,0.0214
3067.00,0.0212
3066.00,0.0211
3065.00,0.0209
3064.00,0.0208
3063.00,0.0207
3062.00,0.0205
3061.00,0.0204
3060.00,0.0202
3059.00,0.0201
3058.00,0.0199
3057.00,0.0198
3056.00,0.0197
3055.00,0.0195
3054.00,0.0194
3053.00,0.0193
3052.00,0.0192
3051.00,0.0190
3050.00,0.0189
3049.00,0.0187
3048.00,0.0186
3047.00,0.0185
3046.00,0.0184
3045.00,0.0183
3044.00,0.0182
3043.00,0.0180
3042.00,0.0179
3041.00,0.0178
3040.00,0.0177
3039.00,0.0175
3038.00,0.0174
3037.00,0.0173
3036.00,0.0172
3035.00,0.0171
3034.00,0.0170
3033.00,0.0169
3032.00,0.0168
3031.00,0.0167
3030.00,0.0165
3029.00,0.0164
3028.00,0.0163
3027.00,0.0163
3026.00,0.0162
3025.00,0.0162
3024.00,0.0162
3023.00,0.0162
3022.00,0.0163
3021.00,0.0164
3020.00,0.0167
3019.00,0.0170
3018.00,0.0175
3017.00,0.0180
3016.00,0.0185
3015.00,0.0189
3014.00,0.0190
3013.00,0.0189
3012.00,0.0184
3011.00,0.0178
3010.00,0.0172
3009.00,0.0166
3008.00,0.0161
3007.00,0.0157
3006.00,0.0154
3005.00,0.0151
3004.00,0.0149
3003.00,0.0148
3002.00,0.0146
3001.00,0.0145
3000.00,0.0145
2999.00,0.0145
2998.00,0.0146
2997.00,0.0148
2996.00,0.0151
2995.00,0.0154
2994.00,0.0159
2993.00,0.0165
2992.00,0.0170
2991.00,0.0172
2990.00,0.0172
2989.00,0.0169
2988.00,0.0163
2987.00,0.0157
2986.00,0.0150
2985.00,0.0144
2984.00,0.0138
2983.00,0.0133
2982.00,0.0129
2981.00,0.0127
2980.00,0.0126
2979.00,0.0126
2978.00,0.0126
2977.00,0.0126
2976.00,0.0127
2975.00,0.0127
2974.00,0.0128
2973.00,0.0129
2972.00,0.0130
2971.00,0.0132
2970.00,0.0136
2969.00,0.0141
2968.00,0.0147
2967.00,0.0154
2966.00,0.0163
2965.00,0.0173
2964.00,0.0183
2963.00,0.0193
2962.00,0.0201
2961.00,0.0207
2960.00,0.0210
2959.00,0.0209
2958.00,0.0206
2957.00,0.0201
2956.00,0.0194
2955.00,0.0187
2954.00,0.0181
2953.00,0.0174
2952.00,0.0170
2951.00,0.0166
2950.00,0.0163
2949.00,0.0161
2948.00,0.0161
2947.00,0.0163
2946.00,0.0168
2945.00,0.0175
2944.00,0.0186
2943.00,0.0199
2942.00,0.0214
2941.00,0.0227
2940.00,0.0236
2939.00,0.0241
2938.00,0.0243
2937.00,0.0243
2936.00,0.0242
2935.00,0.0241
2934.00,0.0241
2933.00,0.0238
2932.00,0.0234
2931.00,0.0228
2930.00,0.0220
2929.00,0.0213
2928.00,0.0206
2927.00,0.0200
2926.00,0.0196
2925.00,0.0193
2924.00,0.0190
2923.00,0.0188
2922.00,0.0186
2921.00,0.0183
2920.00,0.0181
2919.00,0.0178
2918.00,0.0175
2917.00,0.0173
2916.00,0.0172
2915.00,0.0171
2914.00,0.0172
2913.00,0.0175
2912.00,0.0179
2911.00,0.0184
2910.00,0.0193
2909.00,0.0203
2908.00,0.0217
2907.00,0.0233
2906.00,0.0253
2905.00,0.0274
2904.00,0.0295
2903.00,0.0314
2902.00,0.0328
2901.00,0.0336
2900.00,0.0335
2899.00,0.0326
2898.00,0.0312
2897.00,0.0294
2896.00,0.0276
2895.00,0.0259
2894.00,0.0245
2893.00,0.0234
2892.00,0.0226
2891.00,0.0220
2890.00,0.0215
2889.00,0.0211
2888.00,0.0208
2887.00,0.0205
2886.00,0.0202
2885.00,0.0198
2884.00,0.0195
2883.00,0.0191
2882.00,0.0187
2881.00,0.0184
2880.00,0.0180
2879.00,0.0177
2878.00,0.0174
2877.00,0.0170
2876.00,0.0167
2875.00,0.0165
2874.00,0.0162
2873.00,0.0161
2872.00,0.0159
2871.00,0.0157
2870.00,0.0156
2869.00,0.0155
2868.00,0.0154
2867.00,0.0153
2866.00,0.0152
2865.00,0.0151
2864.00,0.0150
2863.00,0.0149
2862.00,0.0148
2861.00,0.0148
2860.00,0.0147
2859.00,0.0147
2858.00,0.0146
2857.00,0.0146
2856.00,0.0145
2855.00,0.0144
2854.00,0.0144
2853.00,0.0143
2852.00,0.0143
2851.00,0.0143
2850.00,0.0142
2849.00,0.0142
2848.00,0.0142
2847.00,0.0142
2846.00,0.0142
2845.00,0.0142
2844.00,0.0142
2843.00,0.0141
2842.00,0.0141
2841.00,0.0141
2840.00,0.0140
2839.00,0.0140
2838.00,0.0140
2837.00,0.0139
2836.00,0.0139
2835.00,0.0139
2834.00,0.0138
2833.00,0.0138
2832.00,0.0138
2831.00,0.0138
2830.00,0.0138
2829.00,0.0137
2828.00,0.0137
2827.00,0.0137
2826.00,0.0137
2825.00,0.0137
2824.00,0.0137
2823.00,0.0137
2822.00,0.0137
2821.00,0.0136
2820.00,0.0136
2819.00,0.0136
2818.00,0.0136
2817.00,0.0135
2816.00,0.0135
2815.00,0.0135
2814.00,0.0134
2813.00,0.0134
2812.00,0.0134
2811.00,0.0133
2810.00,0.0133
2809.00,0.0132
2808.00,0.0132
2807.00,0.0132
2806.00,0.0131
2805.00,0.0131
2804.00,0.0131
2803.00,0.0130
2802.00,0.0130
2801.00,0.0129
2800.00,0.0128
2799.00,0.0128
2798.00,0.0127
2797.00,0.0127
2796.00,0.0126
2795.00,0.0126
2794.00,0.0125
2793.00,0.0125
2792.00,0.0124
2791.00,0.0124
2790.00,0.0123
2789.00,0.0123
2788.00,0.0122
2787.00,0.0122
2786.00,0.0121
2785.00,0.0121
2784.00,0.0121
2783.00,0.0120
2782.00,0.0120
2781.00,0.0120
2780.00,0.0119
2779.00,0.0119
2778.00,0.0119
2777.00,0.0119
2776.00,0.0118
2775.00,0.0118
2774.00,0.0118
2773.00,0.0118
2772.00,0.0117
2771.00,0.0117
2770.00,0.0117
2769.00,0.0117
2768.00,0.0117
2767.00,0.0117
2766.00,0.0117
2765.00,0.0117
2764.00,0.0117
2763.00,0.0117
2762.00,0.0117
2761.00,0.0117
2760.00,0.0117
2759.00,0.0117
2758.00,0.0117
2757.00,0.0117
2756.00,0.0117
2755.00,0.0117
2754.00,0.0117
2753.00,0.0116
2752.00,0.0116
2751.00,0.0116
2750.00,0.0116
2749.00,0.0116
2748.00,0.0116
2747.00,0.0116
2746.00,0.0116
2745.00,0.0116
2744.00,0.0116
2743.00,0.0116
2742.00,0.0116
2741.00,0.0116
2740.00,0.0116
2739.00,0.0116
2738.00,0.0116
2737.00,0.0116
2736.00,0.0116
2735.00,0.0116
2734.00,0.0116
2733.00,0.0116
2732.00,0.0116
2731.00,0.0116
2730.00,0.0116
2729.00,0.0115
2728.00,0.0115
2727.00,0.0115
2726.00,0.0115
2725.00,0.0114
2724.00,0.0114
2723.00,0.0114
2722.00,0.0114
2721.00,0.0113
2720.00,0.0113
2719.00,0.0113
2718.00,0.0113
2717.00,0.0113
2716.00,0.0113
2715.00,0.0112
2714.00,0.0112
2713.00,0.0112
2712.00,0.0112
2711.00,0.0112
2710.00,0.0113
2709.00,0.0113
2708.00,0.0113
2707.00,0.0113
2706.00,0.0113
2705.00,0.0113
2704.00,0.0113
2703.00,0.0114
2702.00,0.0114
2701.00,0.0115
2700.00,0.0115
2699.00,0.0115
2698.00,0.0116
2697.00,0.0116
2696.00,0.0116
2695.00,0.0117
2694.00,0.0117
2693.00,0.0117
2692.00,0.0117
2691.00,0.0118
2690.00,0.0118
2689.00,0.0118
2688.00,0.0118
2687.00,0.0118
2686.00,0.0118
2685.00,0.0118
2684.00,0.0118
2683.00,0.0118
2682.00,0.0118
2681.00,0.0118
2680.00,0.0118
2679.00,0.0118
2678.00,0.0118
2677.00,0.0117
2676.00,0.0117
2675.00,0.0117
2674.00,0.0117
2673.00,0.0117
2672.00,0.0117
2671.00,0.0117
2670.00,0.0117
2669.00,0.0117
2668.00,0.0117
2667.00,0.0118
2666.00,0.0118
2665.00,0.0118
2664.00,0.0119
2663.00,0.0119
2662.00,0.0119
2661.00,0.0119
2660.00,0.0119
2659.00,0.0119
2658.00,0.0119
2657.00,0.0119
2656.00,0.0119
2655.00,0.0119
2654.00,0.0119
2653.00,0.0119
2652.00,0.0119
2651.00,0.0119
2650.00,0.0119
2649.00,0.0118
2648.00,0.0118
2647.00,0.0118
2646.00,0.0118
2645.00,0.0118
2644.00,0.0118
2643.00,0.0118
2642.00,0.0118
2641.00,0.0117
2640.00,0.0117
2639.00,0.0117
2638.00,0.0116
2637.00,0.0116
2636.00,0.0116
2635.00,0.0116
2634.00,0.0116
2633.00,0.0116
2632.00,0.0115
2631.00,0.0115
2630.00,0.0115
2629.00,0.0115
2628.00,0.0114
2627.00,0.0114
2626.00,0.0114
2625.00,0.0114
2624.00,0.0113
2623.00,0.0113
2622.00,0.0113
2621.00,0.0113
2620.00,0.0113
2619.00,0.0113
2618.00,0.0112
2617.00,0.0112
2616.00,0.0111
2615.00,0.0111
2614.00,0.0111
2613.00,0.0110
2612.00,0.0110
2611.00,0.0109
2610.00,0.0109
2609.00,0.0108
2608.00,0.0108
2607.00,0.0107
2606.00,0.0107
2605.00,0.0106
2604.00,0.0106
2603.00,0.0106
2602.00,0.0105
2601.00,0.0105
2600.00,0.0104
2599.00,0.0104
2598.00,0.0103
2597.00,0.0103
2596.00,0.0103
2595.00,0.0103
2594.00,0.0103
2593.00,0.0102
2592.00,0.0102
2591.00,0.0102
2590.00,0.0102
2589.00,0.0102
2588.00,0.0102
2587.00,0.0101
2586.00,0.0101
2585.00,0.0101
2584.00,0.0101
2583.00,0.0101
2582.00,0.0101
2581.00,0.0101
2580.00,0.0101
2579.00,0.0101
2578.00,0.0101
2577.00,0.0101
2576.00,0.0101
2575.00,0.0101
2574.00,0.0101
2573.00,0.0101
2572.00,0.0101
2571.00,0.0101
2570.00,0.0102
2569.00,0.0102
2568.00,0.0102
2567.00,0.0101
2566.00,0.0101
2565.00,0.0100
2564.00,0.0100
2563.00,0.0100
2562.00,0.0100
2561.00,0.0100
2560.00,0.0100
2559.00,0.0099
2558.00,0.0099
2557.00,0.0099
2556.00,0.0099
2555.00,0.0098
2554.00,0.0098
2553.00,0.0098
2552.00,0.0098
2551.00,0.0097
2550.00,0.0097
2549.00,0.0097
2548.00,0.0097
2547.00,0.0097
2546.00,0.0097
2545.00,0.0097
2544.00,0.0096
2543.00,0.0096
2542.00,0.0096
2541.00,0.0096
2540.00,0.0096
2539.00,0.0096
2538.00,0.0096
2537.00,0.0096
2536.00,0.0096
2535.00,0.0096
2534.00,0.0096
2533.00,0.0096
2532.00,0.0096
2531.00,0.0097
2530.00,0.0097
2529.00,0.0097
2528.00,0.0096
2527.00,0.0096
2526.00,0.0096
2525.00,0.0096
2524.00,0.0095
2523.00,0.0095
2522.00,0.0095
2521.00,0.0095
2520.00,0.0095
2519.00,0.0094
2518.00,0.0094
2517.00,0.0094
2516.00,0.0094
2515.00,0.0093
2514.00,0.0093
2513.00,0.0092
2512.00,0.0092
2511.00,0.0092
2510.00,0.0091
2509.00,0.0091
2508.00,0.0091
2507.00,0.0091
2506.00,0.0091
2505.00,0.0091
2504.00,0.0091
2503.00,0.0091
2502.00,0.0090
2501.00,0.0090
2500.00,0.0090
2499.00,0.0090
2498.00,0.0091
2497.00,0.0091
2496.00,0.0091
2495.00,0.0091
2494.00,0.0091
2493.00,0.0090
2492.00,0.0090
2491.00,0.0090
2490.00,0.0090
2489.00,0.0090
2488.00,0.0090
2487.00,0.0090
2486.00,0.0090
2485.00,0.0090
2484.00,0.0091
2483.00,0.0091
2482.00,0.0091
2481.00,0.0091
2480.00,0.0091
2479.00,0.0091
2478.00,0.0091
2477.00,0.0091
2476.00,0.0091
2475.00,0.0091
2474.00,0.0091
2473.00,0.0090
2472.00,0.0090
2471.00,0.0090
2470.00,0.0089
2469.00,0.0089
2468.00,0.0089
2467.00,0.0090
2466.00,0.0090
2465.00,0.0090
2464.00,0.0090
2463.00,0.0090
2462.00,0.0090
2461.00,0.0090
2460.00,0.0091
2459.00,0.0091
2458.00,0.0091
2457.00,0.0091
2456.00,0.0091
2455.00,0.0091
2454.00,0.0090
2453.00,0.0090
2452.00,0.0089
2451.00,0.0089
2450.00,0.0089
2449.00,0.0088
2448.00,0.0088
2447.00,0.0088
2446.00,0.0087
2445.00,0.0087
2444.00,0.0086
2443.00,0.0086
2442.00,0.0086
2441.00,0.0086
2440.00,0.0086
2439.00,0.0086
2438.00,0.0085
2437.00,0.0085
2436.00,0.0085
2435.00,0.0084
2434.00,0.0084
2433.00,0.0084
2432.00,0.0083
2431.00,0.0083
2430.00,0.0082
2429.00,0.0082
2428.00,0.0082
2427.00,0.0082
2426.00,0.0081
2425.00,0.0081
2424.00,0.0081
2423.00,0.0080
2422.00,0.0080
2421.00,0.0080
2420.00,0.0080
2419.00,0.0080
2418.00,0.0080
2417.00,0.0080
2416.00,0.0080
2415.00,0.0079
2414.00,0.0079
2413.00,0.0079
2412.00,0.0079
2411.00,0.0079
2410.00,0.0078
2409.00,0.0078
2408.00,0.0077
2407.00,0.0077
2406.00,0.0077
2405.00,0.0076
2404.00,0.0076
2403.00,0.0076
2402.00,0.0075
2401.00,0.0075
2400.00,0.0075
2399.00,0.0075
2398.00,0.0075
2397.00,0.0075
2396.00,0.0076
2395.00,0.0076
2394.00,0.0076
2393.00,0.0076
2392.00,0.0076
2391.00,0.0076
2390.00,0.0076
2389.00,0.0075
2388.00,0.0075
2387.00,0.0074
2386.00,0.0073
2385.00,0.0072
2384.00,0.0071
2383.00,0.0070
2382.00,0.0069
2381.00,0.0069
2380.00,0.0068
2379.00,0.0068
2378.00,0.0068
2377.00,0.0068
2376.00,0.0068
2375.00,0.0068
2374.00,0.0067
2373.00,0.0066
2372.00,0.0066
2371.00,0.0066
2370.00,0.0065
2369.00,0.0065
2368.00,0.0064
2367.00,0.0064
2366.00,0.0064
2365.00,0.0064
2364.00,0.0065
2363.00,0.0065
2362.00,0.0065
2361.00,0.0065
2360.00,0.0065
2359.00,0.0065
2358.00,0.0065
2357.00,0.0065
2356.00,0.0065
2355.00,0.0065
2354.00,0.0065
2353.00,0.0065
2352.00,0.0064
2351.00,0.0064
2350.00,0.0064
2349.00,0.0065
2348.00,0.0065
2347.00,0.0066
2346.00,0.0066
2345.00,0.0066
2344.00,0.0067
2343.00,0.0067
2342.00,0.0067
2341.00,0.0068
2340.00,0.0068
2339.00,0.0068
2338.00,0.0068
2337.00,0.0068
2336.00,0.0068
2335.00,0.0068
2334.00,0.0068
2333.00,0.0067
2332.00,0.0067
2331.00,0.0067
2330.00,0.0068
2329.00,0.0070
2328.00,0.0073
2327.00,0.0077
2326.00,0.0080
2325.00,0.0081
2324.00,0.0080
2323.00,0.0078
2322.00,0.0076
2321.00,0.0075
2320.00,0.0074
2319.00,0.0074
2318.00,0.0074
2317.00,0.0073
2316.00,0.0073
2315.00,0.0072
2314.00,0.0071
2313.00,0.0070
2312.00,0.0070
2311.00,0.0070
2310.00,0.0070
2309.00,0.0070
2308.00,0.0070
2307.00,0.0071
2306.00,0.0071
2305.00,0.0071
2304.00,0.0072
2303.00,0.0072
2302.00,0.0072
2301.00,0.0072
2300.00,0.0072
2299.00,0.0073
2298.00,0.0074
2297.00,0.0075
2296.00,0.0075
2295.00,0.0076
2294.00,0.0077
2293.00,0.0078
2292.00,0.0079
2291.00,0.0080
2290.00,0.0081
2289.00,0.0082
2288.00,0.0083
2287.00,0.0083
2286.00,0.0083
2285.00,0.0082
2284.00,0.0081
2283.00,0.0080
2282.00,0.0080
2281.00,0.0079
2280.00,0.0079
2279.00,0.0078
2278.00,0.0078
2277.00,0.0077
2276.00,0.0077
2275.00,0.0076
2274.00,0.0076
2273.00,0.0076
2272.00,0.0075
2271.00,0.0075
2270.00,0.0075
2269.00,0.0074
2268.00,0.0074
2267.00,0.0073
2266.00,0.0073
2265.00,0.0072
2264.00,0.0072
2263.00,0.0072
2262.00,0.0072
2261.00,0.0073
2260.00,0.0073
2259.00,0.0073
2258.00,0.0073
2257.00,0.0073
2256.00,0.0072
2255.00,0.0070
2254.00,0.0069
2253.00,0.0069
2252.00,0.0070
2251.00,0.0070
2250.00,0.0071
2249.00,0.0071
2248.00,0.0071
2247.00,0.0071
2246.00,0.0071
2245.00,0.0071
2244.00,0.0071
2243.00,0.0071
2242.00,0.0072
2241.00,0.0072
2240.00,0.0072
2239.00,0.0072
2238.00,0.0072
2237.00,0.0072
2236.00,0.0072
2235.00,0.0072
2234.00,0.0072
2233.00,0.0072
2232.00,0.0071
2231.00,0.0071
2230.00,0.0070
2229.00,0.0070
2228.00,0.0071
2227.00,0.0071
2226.00,0.0072
2225.00,0.0072
2224.00,0.0073
2223.00,0.0073
2222.00,0.0073
2221.00,0.0073
2220.00,0.0072
2219.00,0.0072
2218.00,0.0072
2217.00,0.0071
2216.00,0.0071
2215.00,0.0070
2214.00,0.0070
2213.00,0.0070
2212.00,0.0070
2211.00,0.0070
2210.00,0.0070
2209.00,0.0069
2208.00,0.0068
2207.00,0.0068
2206.00,0.0069
2205.00,0.0069
2204.00,0.0069
2203.00,0.0069
2202.00,0.0069
2201.00,0.0069
2200.00,0.0068
2199.00,0.0067
2198.00,0.0067
2197.00,0.0067
2196.00,0.0067
2195.00,0.0068
2194.00,0.0067
2193.00,0.0067
2192.00,0.0066
2191.00,0.0066
2190.00,0.0066
2189.00,0.0066
2188.00,0.0065
2187.00,0.0065
2186.00,0.0065
2185.00,0.0064
2184.00,0.0063
2183.00,0.0061
2182.00,0.0059
2181.00,0.0060
2180.00,0.0061
2179.00,0.0063
2178.00,0.0063
2177.00,0.0062
2176.00,0.0060
2175.00,0.0060
2174.00,0.0061
2173.00,0.0062
2172.00,0.0065
2171.00,0.0067
2170.00,0.0070
2169.00,0.0072
2168.00,0.0074
2167.00,0.0074
2166.00,0.0074
2165.00,0.0075
2164.00,0.0075
2163.00,0.0074
2162.00,0.0068
2161.00,0.0056
2160.00,0.0043
2159.00,0.0032
2158.00,0.0026
2157.00,0.0026
2156.00,0.0028
2155.00,0.0031
2154.00,0.0034
2153.00,0.0036
2152.00,0.0037
2151.00,0.0039
2150.00,0.0040
2149.00,0.0040
2148.00,0.0040
2147.00,0.0041
2146.00,0.0041
2145.00,0.0041
2144.00,0.0042
2143.00,0.0043
2142.00,0.0044
2141.00,0.0045
2140.00,0.0046
2139.00,0.0046
2138.00,0.0046
2137.00,0.0044
2136.00,0.0042
2135.00,0.0040
2134.00,0.0039
2133.00,0.0040
2132.00,0.0042
2131.00,0.0044
2130.00,0.0046
2129.00,0.0048
2128.00,0.0049
2127.00,0.0050
2126.00,0.0052
2125.00,0.0053
2124.00,0.0054
2123.00,0.0055
2122.00,0.0056
2121.00,0.0057
2120.00,0.0058
2119.00,0.0060
2118.00,0.0061
2117.00,0.0062
2116.00,0.0063
2115.00,0.0064
2114.00,0.0063
2113.00,0.0063
2112.00,0.0063
2111.00,0.0063
2110.00,0.0062
2109.00,0.0061
2108.00,0.0061
2107.00,0.0060
2106.00,0.0060
2105.00,0.0060
2104.00,0.0060
2103.00,0.0060
2102.00,0.0061
2101.00,0.0061
2100.00,0.0061
2099.00,0.0060
2098.00,0.0059
2097.00,0.0056
2096.00,0.0055
2095.00,0.0053
2094.00,0.0053
2093.00,0.0054
2092.00,0.0054
2091.00,0.0055
2090.00,0.0056
2089.00,0.0057
2088.00,0.0057
2087.00,0.0057
2086.00,0.0057
2085.00,0.0057
2084.00,0.0058
2083.00,0.0058
2082.00,0.0058
2081.00,0.0059
2080.00,0.0059
2079.00,0.0059
2078.00,0.0059
2077.00,0.0059
2076.00,0.0058
2075.00,0.0056
2074.00,0.0056
2073.00,0.0055
2072.00,0.0055
2071.00,0.0055
2070.00,0.0055
2069.00,0.0055
2068.00,0.0055
2067.00,0.0055
2066.00,0.0056
2065.00,0.0057
2064.00,0.0057
2063.00,0.0058
2062.00,0.0057
2061.00,0.0057
2060.00,0.0057
2059.00,0.0058
2058.00,0.0058
2057.00,0.0058
2056.00,0.0058
2055.00,0.0058
2054.00,0.0060
2053.00,0.0063
2052.00,0.0066
2051.00,0.0066
2050.00,0.0063
2049.00,0.0060
2048.00,0.0057
2047.00,0.0056
2046.00,0.0056
2045.00,0.0057
2044.00,0.0057
2043.00,0.0057
2042.00,0.0058
2041.00,0.0058
2040.00,0.0059
2039.00,0.0059
2038.00,0.0059
2037.00,0.0058
2036.00,0.0057
2035.00,0.0055
2034.00,0.0053
2033.00,0.0052
2032.00,0.0052
2031.00,0.0053
2030.00,0.0052
2029.00,0.0050
2028.00,0.0048
2027.00,0.0047
2026.00,0.0047
2025.00,0.0047
2024.00,0.0048
2023.00,0.0050
2022.00,0.0051
2021.00,0.0052
2020.00,0.0054
2019.00,0.0055
2018.00,0.0056
2017.00,0.0056
2016.00,0.0056
2015.00,0.0056
2014.00,0.0055
2013.00,0.0054
2012.00,0.0054
2011.00,0.0055
2010.00,0.0054
2009.00,0.0053
2008.00,0.0052
2007.00,0.0050
2006.00,0.0048
2005.00,0.0048
2004.00,0.0049
2003.00,0.0049
2002.00,0.0050
2001.00,0.0050
2000.00,0.0051
1999.00,0.0052
1998.00,0.0053
1997.00,0.0054
1996.00,0.0055
1995.00,0.0057
1994.00,0.0059
1993.00,0.0060
1992.00,0.0062
1991.00,0.0062
1990.00,0.0062
1989.00,0.0061
1988.00,0.0061
1987.00,0.0061
1986.00,0.0062
1985.00,0.0064
1984.00,0.0065
1983.00,0.0067
1982.00,0.0069
1981.00,0.0069
1980.00,0.0065
1979.00,0.0058
1978.00,0.0050
1977.00,0.0046
1976.00,0.0045
1975.00,0.0046
1974.00,0.0048
1973.00,0.0049
1972.00,0.0050
1971.00,0.0050
1970.00,0.0050
1969.00,0.0049
1968.00,0.0047
1967.00,0.0045
1966.00,0.0044
1965.00,0.0043
1964.00,0.0042
1963.00,0.0040
1962.00,0.0038
1961.00,0.0035
1960.00,0.0034
1959.00,0.0033
1958.00,0.0034
1957.00,0.0034
1956.00,0.0035
1955.00,0.0036
1954.00,0.0037
1953.00,0.0038
1952.00,0.0038
1951.00,0.0039
1950.00,0.0039
1949.00,0.0040
1948.00,0.0041
1947.00,0.0042
1946.00,0.0043
1945.00,0.0044
1944.00,0.0044
1943.00,0.0045
1942.00,0.0044
1941.00,0.0045
1940.00,0.0045
1939.00,0.0045
1938.00,0.0046
1937.00,0.0046
1936.00,0.0046
1935.00,0.0047
1934.00,0.0047
1933.00,0.0048
1932.00,0.0049
1931.00,0.0049
1930.00,0.0049
1929.00,0.0050
1928.00,0.0050
1927.00,0.0050
1926.00,0.0050
1925.00,0.0051
1924.00,0.0051
1923.00,0.0052
1922.00,0.0053
1921.00,0.0053
1920.00,0.0053
1919.00,0.0053
1918.00,0.0053
1917.00,0.0054
1916.00,0.0054
1915.00,0.0054
1914.00,0.0055
1913.00,0.0055
1912.00,0.0056
1911.00,0.0056
1910.00,0.0056
1909.00,0.0056
1908.00,0.0057
1907.00,0.0057
1906.00,0.0057
1905.00,0.0058
1904.00,0.0058
1903.00,0.0059
1902.00,0.0059
1901.00,0.0058
1900.00,0.0058
1899.00,0.0057
1898.00,0.0057
1897.00,0.0057
1896.00,0.0057
1895.00,0.0057
1894.00,0.0057
1893.00,0.0058
1892.00,0.0058
1891.00,0.0058
1890.00,0.0057
1889.00,0.0058
1888.00,0.0058
1887.00,0.0058
1886.00,0.0059
1885.00,0.0059
1884.00,0.0059
1883.00,0.0058
1882.00,0.0058
1881.00,0.0058
1880.00,0.0058
1879.00,0.0057
1878.00,0.0057
1877.00,0.0057
1876.00,0.0057
1875.00,0.0058
1874.00,0.0058
1873.00,0.0059
1872.00,0.0059
1871.00,0.0059
1870.00,0.0059
1869.00,0.0059
1868.00,0.0058
1867.00,0.0059
1866.00,0.0059
1865.00,0.0059
1864.00,0.0059
1863.00,0.0059
1862.00,0.0058
1861.00,0.0058
1860.00,0.0058
1859.00,0.0058
1858.00,0.0058
1857.00,0.0058
1856.00,0.0059
1855.00,0.0059
1854.00,0.0059
1853.00,0.0058
1852.00,0.0058
1851.00,0.0058
1850.00,0.0058
1849.00,0.0058
1848.00,0.0058
1847.00,0.0058
1846.00,0.0058
1845.00,0.0058
1844.00,0.0058
1843.00,0.0058
1842.00,0.0057
1841.00,0.0057
1840.00,0.0057
1839.00,0.0057
1838.00,0.0056
1837.00,0.0056
1836.00,0.0056
1835.00,0.0056
1834.00,0.0056
1833.00,0.0057
1832.00,0.0057
1831.00,0.0057
1830.00,0.0057
1829.00,0.0057
1828.00,0.0056
1827.00,0.0056
1826.00,0.0056
1825.00,0.0057
1824.00,0.0057
1823.00,0.0057
1822.00,0.0057
1821.00,0.0057
1820.00,0.0056
1819.00,0.0055
1818.00,0.0054
1817.00,0.0054
1816.00,0.0054
1815.00,0.0055
1814.00,0.0055
1813.00,0.0056
1812.00,0.0056
1811.00,0.0057
1810.00,0.0057
1809.00,0.0058
1808.00,0.0058
1807.00,0.0058
1806.00,0.0058
1805.00,0.0058
1804.00,0.0058
1803.00,0.0058
1802.00,0.0058
1801.00,0.0059
1800.00,0.0059
1799.00,0.0059
1798.00,0.0060
1797.00,0.0060
1796.00,0.0060
1795.00,0.0060
1794.00,0.0060
1793.00,0.0059
1792.00,0.0059
1791.00,0.0058
1790.00,0.0058
1789.00,0.0058
1788.00,0.0058
1787.00,0.0058
1786.00,0.0058
1785.00,0.0058
1784.00,0.0058
1783.00,0.0058
1782.00,0.0058
1781.00,0.0058
1780.00,0.0058
1779.00,0.0058
1778.00,0.0058
1777.00,0.0058
1776.00,0.0058
1775.00,0.0058
1774.00,0.0058
1773.00,0.0058
1772.00,0.0059
1771.00,0.0059
1770.00,0.0059
1769.00,0.0059
1768.00,0.0059
1767.00,0.0059
1766.00,0.0059
1765.00,0.0059
1764.00,0.0059
1763.00,0.0059
1762.00,0.0059
1761.00,0.0059
1760.00,0.0059
1759.00,0.0059
1758.00,0.0059
1757.00,0.0059
1756.00,0.0059
1755.00,0.0059
1754.00,0.0059
1753.00,0.0059
1752.00,0.0059
1751.00,0.0059
1750.00,0.0059
1749.00,0.0059
1748.00,0.0059
1747.00,0.0059
1746.00,0.0059
1745.00,0.0059
1744.00,0.0059
1743.00,0.0059
1742.00,0.0059
1741.00,0.0059
1740.00,0.0059
1739.00,0.0059
1738.00,0.0059
1737.00,0.0059
1736.00,0.0058
1735.00,0.0058
1734.00,0.0058
1733.00,0.0058
1732.00,0.0059
1731.00,0.0059
1730.00,0.0059
1729.00,0.0059
1728.00,0.0059
1727.00,0.0059
1726.00,0.0059
1725.00,0.0059
1724.00,0.0059
1723.00,0.0059
1722.00,0.0059
1721.00,0.0059
1720.00,0.0059
1719.00,0.0059
1718.00,0.0059
1717.00,0.0059
1716.00,0.0060
1715.00,0.0060
1714.00,0.0060
1713.00,0.0060
1712.00,0.0060
1711.00,0.0060
1710.00,0.0060
1709.00,0.0060
1708.00,0.0060
1707.00,0.0060
1706.00,0.0060
1705.00,0.0060
1704.00,0.0060
1703.00,0.0060
1702.00,0.0060
1701.00,0.0060
1700.00,0.0060
1699.00,0.0060
1698.00,0.0060
1697.00,0.0060
1696.00,0.0060
1695.00,0.0060
1694.00,0.0060
1693.00,0.0061
1692.00,0.0061
1691.00,0.0061
1690.00,0.0061
1689.00,0.0061
1688.00,0.0061
1687.00,0.0061
1686.00,0.0061
1685.00,0.0061
1684.00,0.0061
1683.00,0.0061
1682.00,0.0060
1681.00,0.0060
1680.00,0.0060
1679.00,0.0060
1678.00,0.0060
1677.00,0.0060
1676.00,0.0060
1675.00,0.0061
1674.00,0.0061
1673.00,0.0061
1672.00,0.0061
1671.00,0.0061
1670.00,0.0061
1669.00,0.0061
1668.00,0.0061
1667.00,0.0061
1666.00,0.0062
1665.00,0.0062
1664.00,0.0062
1663.00,0.0062
1662.00,0.0062
1661.00,0.0062
1660.00,0.0062
1659.00,0.0062
1658.00,0.0062
1657.00,0.0063
1656.00,0.0063
1655.00,0.0063
1654.00,0.0064
1653.00,0.0063
1652.00,0.0063
1651.00,0.0063
1650.00,0.0063
1649.00,0.0063
1648.00,0.0063
1647.00,0.0062
1646.00,0.0062
1645.00,0.0061
1644.00,0.0061
1643.00,0.0061
1642.00,0.0061
1641.00,0.0060
1640.00,0.0060
1639.00,0.0060
1638.00,0.0060
1637.00,0.0060
1636.00,0.0060
1635.00,0.0060
1634.00,0.0060
1633.00,0.0060
1632.00,0.0060
1631.00,0.0060
1630.00,0.0060
1629.00,0.0060
1628.00,0.0060
1627.00,0.0060
1626.00,0.0060
1625.00,0.0061
1624.00,0.0061
1623.00,0.0060
1622.00,0.0060
1621.00,0.0060
1620.00,0.0060
1619.00,0.0060
1618.00,0.0060
1617.00,0.0060
1616.00,0.0060
1615.00,0.0060
1614.00,0.0060
1613.00,0.0060
1612.00,0.0060
1611.00,0.0061
1610.00,0.0061
1609.00,0.0061
1608.00,0.0061
1607.00,0.0061
1606.00,0.0061
1605.00,0.0061
1604.00,0.0061
1603.00,0.0061
1602.00,0.0061
1601.00,0.0061
1600.00,0.0061
1599.00,0.0061
1598.00,0.0061
1597.00,0.0061
1596.00,0.0061
1595.00,0.0061
1594.00,0.0061
1593.00,0.0061
1592.00,0.0062
1591.00,0.0062
1590.00,0.0062
1589.00,0.0062
1588.00,0.0062
1587.00,0.0062
1586.00,0.0062
1585.00,0.0062
1584.00,0.0062
1583.00,0.0062
1582.00,0.0062
1581.00,0.0062
1580.00,0.0062
1579.00,0.0063
1578.00,0.0063
1577.00,0.0063
1576.00,0.0063
1575.00,0.0063
1574.00,0.0063
1573.00,0.0063
1572.00,0.0063
1571.00,0.0063
1570.00,0.0062
1569.00,0.0062
1568.00,0.0062
1567.00,0.0062
1566.00,0.0062
1565.00,0.0062
1564.00,0.0062
1563.00,0.0062
1562.00,0.0062
1561.00,0.0062
1560.00,0.0062
1559.00,0.0062
1558.00,0.0062
1557.00,0.0063
1556.00,0.0063
1555.00,0.0063
1554.00,0.0063
1553.00,0.0063
1552.00,0.0063
1551.00,0.0064
1550.00,0.0064
1549.00,0.0064
1548.00,0.0065
1547.00,0.0065
1546.00,0.0065
1545.00,0.0066
1544.00,0.0066
1543.00,0.0066
1542.00,0.0066
1541.00,0.0066
1540.00,0.0066
1539.00,0.0067
1538.00,0.0067
1537.00,0.0067
1536.00,0.0068
1535.00,0.0069
1534.00,0.0069
1533.00,0.0070
1532.00,0.0070
1531.00,0.0070
1530.00,0.0070
1529.00,0.0070
1528.00,0.0070
1527.00,0.0071
1526.00,0.0071
1525.00,0.0072
1524.00,0.0073
1523.00,0.0073
1522.00,0.0074
1521.00,0.0074
1520.00,0.0074
1519.00,0.0074
1518.00,0.0075
1517.00,0.0075
1516.00,0.0076
1515.00,0.0076
1514.00,0.0077
1513.00,0.0077
1512.00,0.0078
1511.00,0.0078
1510.00,0.0079
1509.00,0.0079
1508.00,0.0080
1507.00,0.0081
1506.00,0.0081
1505.00,0.0081
1504.00,0.0081
1503.00,0.0082
1502.00,0.0083
1501.00,0.0083
1500.00,0.0084
1499.00,0.0084
1498.00,0.0085
1497.00,0.0085
1496.00,0.0086
1495.00,0.0086
1494.00,0.0087
1493.00,0.0087
1492.00,0.0088
1491.00,0.0089
1490.00,0.0090
1489.00,0.0090
1488.00,0.0091
1487.00,0.0092
1486.00,0.0093
1485.00,0.0094
1484.00,0.0096
1483.00,0.0098
1482.00,0.0099
1481.00,0.0101
1480.00,0.0104
1479.00,0.0107
1478.00,0.0110
1477.00,0.0116
1476.00,0.0123
1475.00,0.0134
1474.00,0.0150
1473.00,0.0173
1472.00,0.0199
1471.00,0.0222
1470.00,0.0235
1469.00,0.0238
1468.00,0.0230
1467.00,0.0213
1466.00,0.0190
1465.00,0.0169
1464.00,0.0155
1463.00,0.0148
1462.00,0.0146
1461.00,0.0148
1460.00,0.0152
1459.00,0.0159
1458.00,0.0170
1457.00,0.0187
1456.00,0.0208
1455.00,0.0227
1454.00,0.0243
1453.00,0.0252
1452.00,0.0253
1451.00,0.0245
1450.00,0.0232
1449.00,0.0217
1448.00,0.0206
1447.00,0.0198
1446.00,0.0195
1445.00,0.0195
1444.00,0.0197
1443.00,0.0202
1442.00,0.0209
1441.00,0.0218
1440.00,0.0228
1439.00,0.0240
1438.00,0.0255
1437.00,0.0273
1436.00,0.0294
1435.00,0.0315
1434.00,0.0334
1433.00,0.0353
1432.00,0.0371
1431.00,0.0388
1430.00,0.0402
1429.00,0.0411
1428.00,0.0414
1427.00,0.0412
1426.00,0.0405
1425.00,0.0394
1424.00,0.0379
1423.00,0.0364
1422.00,0.0349
1421.00,0.0335
1420.00,0.0322
1419.00,0.0310
1418.00,0.0301
1417.00,0.0295
1416.00,0.0291
1415.00,0.0289
1414.00,0.0288
1413.00,0.0288
1412.00,0.0289
1411.00,0.0293
1410.00,0.0298
1409.00,0.0305
1408.00,0.0315
1407.00,0.0327
1406.00,0.0341
1405.00,0.0358
1404.00,0.0377
1403.00,0.0396
1402.00,0.0414
1401.00,0.0431
1400.00,0.0446
1399.00,0.0458
1398.00,0.0465
1397.00,0.0467
1396.00,0.0464
1395.00,0.0456
1394.00,0.0443
1393.00,0.0428
1392.00,0.0413
1391.00,0.0397
1390.00,0.0381
1389.00,0.0365
1388.00,0.0348
1387.00,0.0331
1386.00,0.0316
1385.00,0.0302
1384.00,0.0289
1383.00,0.0277
1382.00,0.0267
1381.00,0.0258
1380.00,0.0252
1379.00,0.0248
1378.00,0.0247
1377.00,0.0249
1376.00,0.0255
1375.00,0.0264
1374.00,0.0274
1373.00,0.0281
1372.00,0.0281
1371.00,0.0274
1370.00,0.0259
1369.00,0.0239
1368.00,0.0219
1367.00,0.0202
1366.00,0.0191
1365.00,0.0185
1364.00,0.0183
1363.00,0.0184
1362.00,0.0188
1361.00,0.0195
1360.00,0.0204
1359.00,0.0215
1358.00,0.0230
1357.00,0.0247
1356.00,0.0266
1355.00,0.0288
1354.00,0.0312
1353.00,0.0337
1352.00,0.0364
1351.00,0.0391
1350.00,0.0419
1349.00,0.0448
1348.00,0.0478
1347.00,0.0507
1346.00,0.0538
1345.00,0.0570
1344.00,0.0603
1343.00,0.0638
1342.00,0.0672
1341.00,0.0706
1340.00,0.0738
1339.00,0.0768
1338.00,0.0796
1337.00,0.0823
1336.00,0.0851
1335.00,0.0876
1334.00,0.0891
1333.00,0.0890
1332.00,0.0869
1331.00,0.0828
1330.00,0.0773
1329.00,0.0712
1328.00,0.0651
1327.00,0.0594
1326.00,0.0543
1325.00,0.0498
1324.00,0.0459
1323.00,0.0425
1322.00,0.0396
1321.00,0.0370
1320.00,0.0349
1319.00,0.0330
1318.00,0.0315
1317.00,0.0302
1316.00,0.0291
1315.00,0.0283
1314.00,0.0275
1313.00,0.0270
1312.00,0.0265
1311.00,0.0260
1310.00,0.0257
1309.00,0.0253
1308.00,0.0250
1307.00,0.0248
1306.00,0.0246
1305.00,0.0246
1304.00,0.0247
1303.00,0.0248
1302.00,0.0251
1301.00,0.0254
1300.00,0.0256
1299.00,0.0259
1298.00,0.0260
1297.00,0.0260
1296.00,0.0258
1295.00,0.0254
1294.00,0.0249
1293.00,0.0243
1292.00,0.0236
1291.00,0.0230
1290.00,0.0223
1289.00,0.0218
1288.00,0.0213
1287.00,0.0209
1286.00,0.0206
1285.00,0.0205
1284.00,0.0205
1283.00,0.0206
1282.00,0.0210
1281.00,0.0215
1280.00,0.0223
1279.00,0.0232
1278.00,0.0241
1277.00,0.0250
1276.00,0.0258
1275.00,0.0263
1274.00,0.0265
1273.00,0.0267
1272.00,0.0269
1271.00,0.0277
1270.00,0.0295
1269.00,0.0327
1268.00,0.0370
1267.00,0.0417
1266.00,0.0452
1265.00,0.0464
1264.00,0.0448
1263.00,0.0412
1262.00,0.0368
1261.00,0.0330
1260.00,0.0302
1259.00,0.0286
1258.00,0.0281
1257.00,0.0282
1256.00,0.0288
1255.00,0.0297
1254.00,0.0308
1253.00,0.0318
1252.00,0.0325
1251.00,0.0329
1250.00,0.0329
1249.00,0.0324
1248.00,0.0314
1247.00,0.0302
1246.00,0.0289
1245.00,0.0277
1244.00,0.0265
1243.00,0.0256
1242.00,0.0248
1241.00,0.0243
1240.00,0.0240
1239.00,0.0238
1238.00,0.0238
1237.00,0.0240
1236.00,0.0243
1235.00,0.0247
1234.00,0.0251
1233.00,0.0253
1232.00,0.0252
1231.00,0.0248
1230.00,0.0242
1229.00,0.0233
1228.00,0.0224
1227.00,0.0214
1226.00,0.0206
1225.00,0.0199
1224.00,0.0192
1223.00,0.0187
1222.00,0.0182
1221.00,0.0178
1220.00,0.0173
1219.00,0.0169
1218.00,0.0165
1217.00,0.0161
1216.00,0.0157
1215.00,0.0153
1214.00,0.0149
1213.00,0.0146
1212.00,0.0143
1211.00,0.0140
1210.00,0.0138
1209.00,0.0136
1208.00,0.0134
1207.00,0.0133
1206.00,0.0131
1205.00,0.0130
1204.00,0.0129
1203.00,0.0129
1202.00,0.0128
1201.00,0.0129
1200.00,0.0129
1199.00,0.0129
1198.00,0.0130
1197.00,0.0131
1196.00,0.0133
1195.00,0.0135
1194.00,0.0138
1193.00,0.0141
1192.00,0.0146
1191.00,0.0150
1190.00,0.0157
1189.00,0.0164
1188.00,0.0173
1187.00,0.0183
1186.00,0.0196
1185.00,0.0212
1184.00,0.0231
1183.00,0.0254
1182.00,0.0282
1181.00,0.0312
1180.00,0.0346
1179.00,0.0379
1178.00,0.0409
1177.00,0.0432
1176.00,0.0443
1175.00,0.0440
1174.00,0.0426
1173.00,0.0403
1172.00,0.0376
1171.00,0.0348
1170.00,0.0323
1169.00,0.0303
1168.00,0.0287
1167.00,0.0277
1166.00,0.0273
1165.00,0.0273
1164.00,0.0278
1163.00,0.0287
1162.00,0.0302
1161.00,0.0321
1160.00,0.0347
1159.00,0.0380
1158.00,0.0420
1157.00,0.0469
1156.00,0.0525
1155.00,0.0588
1154.00,0.0656
1153.00,0.0725
1152.00,0.0791
1151.00,0.0850
1150.00,0.0896
1149.00,0.0927
1148.00,0.0940
1147.00,0.0935
1146.00,0.0913
1145.00,0.0876
1144.00,0.0829
1143.00,0.0778
1142.00,0.0731
1141.00,0.0693
1140.00,0.0667
1139.00,0.0656
1138.00,0.0655
1137.00,0.0661
1136.00,0.0668
1135.00,0.0672
1134.00,0.0671
1133.00,0.0663
1132.00,0.0649
1131.00,0.0630
1130.00,0.0607
1129.00,0.0582
1128.00,0.0555
1127.00,0.0528
1126.00,0.0502
1125.00,0.0476
1124.00,0.0452
1123.00,0.0428
1122.00,0.0406
1121.00,0.0386
1120.00,0.0367
1119.00,0.0350
1118.00,0.0335
1117.00,0.0321
1116.00,0.0309
1115.00,0.0299
1114.00,0.0290
1113.00,0.0283
1112.00,0.0277
1111.00,0.0272
1110.00,0.0269
1109.00,0.0267
1108.00,0.0267
1107.00,0.0270
1106.00,0.0276
1105.00,0.0286
1104.00,0.0299
1103.00,0.0320
1102.00,0.0351
1101.00,0.0395
1100.00,0.0455
1099.00,0.0534
1098.00,0.0631
1097.00,0.0740
1096.00,0.0847
1095.00,0.0935
1094.00,0.0985
1093.00,0.0989
1092.00,0.0955
1091.00,0.0902
1090.00,0.0847
1089.00,0.0802
1088.00,0.0772
1087.00,0.0758
1086.00,0.0762
1085.00,0.0788
1084.00,0.0841
1083.00,0.0919
1082.00,0.1019
1081.00,0.1126
1080.00,0.1228
1079.00,0.1313
1078.00,0.1374
1077.00,0.1409
1076.00,0.1416
1075.00,0.1393
1074.00,0.1341
1073.00,0.1269
1072.00,0.1188
1071.00,0.1114
1070.00,0.1058
1069.00,0.1027
1068.00,0.1022
1067.00,0.1039
1066.00,0.1073
1065.00,0.1115
1064.00,0.1157
1063.00,0.1196
1062.00,0.1229
1061.00,0.1258
1060.00,0.1287
1059.00,0.1319
1058.00,0.1357
1057.00,0.1400
1056.00,0.1450
1055.00,0.1504
1054.00,0.1560
1053.00,0.1616
1052.00,0.1666
1051.00,0.1706
1050.00,0.1734
1049.00,0.1745
1048.00,0.1740
1047.00,0.1720
1046.00,0.1686
1045.00,0.1642
1044.00,0.1589
1043.00,0.1532
1042.00,0.1471
1041.00,0.1410
1040.00,0.1350
1039.00,0.1294
1038.00,0.1243
1037.00,0.1200
1036.00,0.1165
1035.00,0.1140
1034.00,0.1124
1033.00,0.1116
1032.00,0.1112
1031.00,0.1109
1030.00,0.1103
1029.00,0.1092
1028.00,0.1074
1027.00,0.1048
1026.00,0.1017
1025.00,0.0982
1024.00,0.0944
1023.00,0.0904
1022.00,0.0865
1021.00,0.0827
1020.00,0.0791
1019.00,0.0758
1018.00,0.0726
1017.00,0.0696
1016.00,0.0667
1015.00,0.0640
1014.00,0.0614
1013.00,0.0590
1012.00,0.0567
1011.00,0.0544
1010.00,0.0523
1009.00,0.0503
1008.00,0.0484
1007.00,0.0465
1006.00,0.0448
1005.00,0.0431
1004.00,0.0414
1003.00,0.0398
1002.00,0.0384
1001.00,0.0370
1000.00,0.0356
999.00,0.0344
998.00,0.0333
997.00,0.0323
996.00,0.0314
995.00,0.0307
994.00,0.0302
993.00,0.0299
992.00,0.0297
991.00,0.0298
990.00,0.0302
989.00,0.0310
988.00,0.0323
987.00,0.0345
986.00,0.0380
985.00,0.0432
984.00,0.0509
983.00,0.0619
982.00,0.0764
981.00,0.0941
980.00,0.1131
979.00,0.1308
978.00,0.1441
977.00,0.1511
976.00,0.1514
975.00,0.1464
974.00,0.1382
973.00,0.1287
972.00,0.1190
971.00,0.1098
970.00,0.1014
969.00,0.0938
968.00,0.0870
967.00,0.0810
966.00,0.0757
965.00,0.0711
964.00,0.0670
963.00,0.0634
962.00,0.0602
961.00,0.0572
960.00,0.0546
959.00,0.0521
958.00,0.0499
957.00,0.0480
956.00,0.0462
955.00,0.0445
954.00,0.0431
953.00,0.0417
952.00,0.0405
951.00,0.0394
950.00,0.0384
949.00,0.0375
948.00,0.0366
947.00,0.0358
946.00,0.0351
945.00,0.0345
944.00,0.0339
943.00,0.0333
942.00,0.0328
941.00,0.0323
940.00,0.0318
939.00,0.0314
938.00,0.0310
937.00,0.0308
936.00,0.0306
935.00,0.0306
934.00,0.0308
933.00,0.0312
932.00,0.0319
931.00,0.0332
930.00,0.0355
929.00,0.0389
928.00,0.0435
927.00,0.0492
926.00,0.0550
925.00,0.0597
924.00,0.0621
923.00,0.0616
922.00,0.0584
921.00,0.0535
920.00,0.0482
919.00,0.0435
918.00,0.0397
917.00,0.0369
916.00,0.0347
915.00,0.0331
914.00,0.0318
913.00,0.0308
912.00,0.0300
911.00,0.0294
910.00,0.0289
909.00,0.0284
908.00,0.0280
907.00,0.0276
906.00,0.0272
905.00,0.0269
904.00,0.0266
903.00,0.0264
902.00,0.0262
901.00,0.0260
900.00,0.0259
899.00,0.0258
898.00,0.0258
897.00,0.0258
896.00,0.0258
895.00,0.0258
894.00,0.0260
893.00,0.0261
892.00,0.0263
891.00,0.0266
890.00,0.0269
889.00,0.0274
888.00,0.0279
887.00,0.0285
886.00,0.0294
885.00,0.0305
884.00,0.0319
883.00,0.0336
882.00,0.0358
881.00,0.0386
880.00,0.0422
879.00,0.0465
878.00,0.0516
877.00,0.0569
876.00,0.0615
875.00,0.0645
874.00,0.0652
873.00,0.0637
872.00,0.0610
871.00,0.0585
870.00,0.0571
869.00,0.0570
868.00,0.0576
867.00,0.0581
866.00,0.0577
865.00,0.0562
864.00,0.0537
863.00,0.0506
862.00,0.0474
861.00,0.0444
860.00,0.0417
859.00,0.0394
858.00,0.0376
857.00,0.0361
856.00,0.0348
855.00,0.0337
854.00,0.0329
853.00,0.0323
852.00,0.0318
851.00,0.0313
850.00,0.0310
849.00,0.0307
848.00,0.0305
847.00,0.0304
846.00,0.0304
845.00,0.0304
844.00,0.0304
843.00,0.0305
842.00,0.0307
841.00,0.0310
840.00,0.0313
839.00,0.0318
838.00,0.0324
837.00,0.0331
836.00,0.0339
835.00,0.0348
834.00,0.0359
833.00,0.0371
832.00,0.0385
831.00,0.0399
830.00,0.0415
829.00,0.0431
828.00,0.0446
827.00,0.0463
826.00,0.0481
825.00,0.0503
824.00,0.0532
823.00,0.0569
822.00,0.0614
821.00,0.0661
820.00,0.0703
819.00,0.0732
818.00,0.0743
817.00,0.0735
816.00,0.0709
815.00,0.0675
814.00,0.0638
813.00,0.0603
812.00,0.0571
811.00,0.0545
810.00,0.0524
809.00,0.0507
808.00,0.0493
807.00,0.0483
806.00,0.0475
805.00,0.0471
804.00,0.0468
803.00,0.0468
802.00,0.0469
801.00,0.0472
800.00,0.0477
799.00,0.0484
798.00,0.0494
797.00,0.0507
796.00,0.0522
795.00,0.0540
794.00,0.0564
793.00,0.0593
792.00,0.0627
791.00,0.0670
790.00,0.0723
789.00,0.0788
788.00,0.0867
787.00,0.0962
786.00,0.1069
785.00,0.1179
784.00,0.1278
783.00,0.1350
782.00,0.1385
781.00,0.1375
780.00,0.1328
779.00,0.1254
778.00,0.1169
777.00,0.1081
776.00,0.0997
775.00,0.0920
774.00,0.0851
773.00,0.0791
772.00,0.0739
771.00,0.0694
770.00,0.0657
769.00,0.0626
768.00,0.0599
767.00,0.0577
766.00,0.0558
765.00,0.0542
764.00,0.0529
763.00,0.0517
762.00,0.0508
761.00,0.0500
760.00,0.0492
759.00,0.0485
758.00,0.0480
757.00,0.0475
756.00,0.0470
755.00,0.0466
754.00,0.0463
753.00,0.0461
752.00,0.0459
751.00,0.0456
750.00,0.0455
749.00,0.0454
748.00,0.0452
747.00,0.0451
746.00,0.0450
745.00,0.0450
744.00,0.0449
743.00,0.0449
742.00,0.0449
741.00,0.0449
740.00,0.0449
739.00,0.0448
738.00,0.0449
737.00,0.0450
736.00,0.0451
735.00,0.0452
734.00,0.0453
733.00,0.0454
732.00,0.0455
731.00,0.0456
730.00,0.0458
729.00,0.0460
728.00,0.0462
727.00,0.0464
726.00,0.0466
725.00,0.0470
724.00,0.0473
723.00,0.0477
722.00,0.0481
721.00,0.0485
720.00,0.0488
719.00,0.0493
718.00,0.0499
717.00,0.0504
716.00,0.0510
715.00,0.0515
714.00,0.0522
713.00,0.0529
712.00,0.0535
711.00,0.0541
710.00,0.0549
709.00,0.0556
708.00,0.0564
707.00,0.0571
706.00,0.0578
705.00,0.0584
704.00,0.0591
703.00,0.0597
702.00,0.0605
701.00,0.0612
700.00,0.0619
699.00,0.0627
698.00,0.0634
697.00,0.0641
696.00,0.0647
695.00,0.0653
694.00,0.0659
693.00,0.0665
692.00,0.0670
691.00,0.0675
690.00,0.0681
689.00,0.0686
688.00,0.0690
687.00,0.0692
686.00,0.0695
685.00,0.0697
684.00,0.0699
683.00,0.0700
682.00,0.0701
681.00,0.0701
680.00,0.0700
679.00,0.0698
678.00,0.0697
677.00,0.0696
676.00,0.0693
675.00,0.0690
674.00,0.0687
673.00,0.0683
672.00,0.0678
671.00,0.0673
670.00,0.0670
669.00,0.0667
668.00,0.0663
667.00,0.0658
666.00,0.0653
665.00,0.0648
664.00,0.0643
663.00,0.0637
662.00,0.0631
661.00,0.0626
660.00,0.0620
659.00,0.0615
658.00,0.0610
657.00,0.0606
656.00,0.0599
655.00,0.0594
654.00,0.0589
653.00,0.0584
652.00,0.0579
651.00,0.0574
650.00,0.0570
649.00,0.0566
648.00,0.0561
647.00,0.0558
646.00,0.0556
645.00,0.0555
644.00,0.0553
643.00,0.0552
642.00,0.0553
641.00,0.0556
640.00,0.0561
639.00,0.0570
638.00,0.0584
637.00,0.0604
636.00,0.0630
635.00,0.0667
634.00,0.0717
633.00,0.0782
632.00,0.0864
631.00,0.0964
630.00,0.1076
629.00,0.1185
628.00,0.1274
627.00,0.1328
626.00,0.1339
625.00,0.1312
624.00,0.1259
623.00,0.1192
622.00,0.1122
621.00,0.1056
620.00,0.0997
619.00,0.0945
618.00,0.0903
617.00,0.0870
616.00,0.0845
615.00,0.0826
614.00,0.0813
613.00,0.0802
612.00,0.0793
611.00,0.0786
610.00,0.0782
609.00,0.0779
608.00,0.0777
607.00,0.0778
606.00,0.0784
605.00,0.0796
604.00,0.0814
603.00,0.0840
602.00,0.0873
601.00,0.0908
600.00,0.0940
599.00,0.0966
598.00,0.0984
597.00,0.0994
596.00,0.0997
595.00,0.0997
594.00,0.0997
593.00,0.0996
592.00,0.0995
591.00,0.0995
590.00,0.0998
589.00,0.1002
588.00,0.1007
587.00,0.1014
586.00,0.1023
585.00,0.1033
584.00,0.1043
583.00,0.1053
582.00,0.1065
581.00,0.1077
580.00,0.1089
579.00,0.1101
578.00,0.1115
577.00,0.1129
576.00,0.1142
575.00,0.1155
574.00,0.1168
573.00,0.1180
572.00,0.1190
571.00,0.1200
570.00,0.1209
569.00,0.1217
568.00,0.1222
567.00,0.1227
566.00,0.1231
565.00,0.1234
564.00,0.1236
563.00,0.1238
562.00,0.1240
561.00,0.1243
560.00,0.1245
559.00,0.1247
558.00,0.1250
557.00,0.1252
556.00,0.1253
555.00,0.1255
554.00,0.1258
553.00,0.1261
552.00,0.1264
551.00,0.1269
550.00,0.1275
549.00,0.1282
548.00,0.1287
547.00,0.1294
546.00,0.1301
545.00,0.1307
544.00,0.1312
543.00,0.1316
542.00,0.1322
541.00,0.1329
540.00,0.1334
539.00,0.1339
538.00,0.1345
537.00,0.1349
536.00,0.1351
535.00,0.1351
534.00,0.1351
533.00,0.1349
532.00,0.1346
531.00,0.1340
530.00,0.1335
529.00,0.1329
528.00,0.1327
527.00,0.1331
526.00,0.1340
525.00,0.1351
524.00,0.1358
523.00,0.1362
522.00,0.1363
521.00,0.1361
520.00,0.1356
519.00,0.1348
518.00,0.1340
517.00,0.1328
516.00,0.1314
515.00,0.1301
514.00,0.1290
513.00,0.1281
512.00,0.1271
511.00,0.1263
510.00,0.1255
509.00,0.1246
508.00,0.1234
507.00,0.1222
506.00,0.1211
505.00,0.1201
504.00,0.1190
503.00,0.1179
502.00,0.1170
501.00,0.1161
500.00,0.1151
499.00,0.1141
498.00,0.1133
497.00,0.1123
496.00,0.1110
495.00,0.1096
494.00,0.1084
493.00,0.1073
492.00,0.1060
491.00,0.1049
490.00,0.1039
489.00,0.1028
488.00,0.1013
487.00,0.0997
486.00,0.0984
485.00,0.0972
484.00,0.0958
483.00,0.0945
482.00,0.0935
481.00,0.0925
480.00,0.0915
479.00,0.0907
478.00,0.0904
477.00,0.0904
476.00,0.0905
475.00,0.0910
474.00,0.0923
473.00,0.0941
472.00,0.0963
471.00,0.0989
470.00,0.1018
469.00,0.1042
468.00,0.1054
467.00,0.1055
466.00,0.1049
465.00,0.1037
464.00,0.1018
463.00,0.0997
462.00,0.0977
461.00,0.0955
460.00,0.0931
459.00,0.0910
458.00,0.0893
457.00,0.0877
456.00,0.0860
455.00,0.0847
454.00,0.0839
453.00,0.0831
452.00,0.0819
451.00,0.0807
450.00,0.0802
449.00,0.0797
448.00,0.0790
447.00,0.0783
446.00,0.0778
445.00,0.0773
444.00,0.0764
443.00,0.0759
442.00,0.0760
441.00,0.0764
440.00,0.0765
439.00,0.0764
438.00,0.0763
437.00,0.0757
436.00,0.0746
435.00,0.0735
434.00,0.0729
433.00,0.0724
432.00,0.0719
431.00,0.0721
430.00,0.0736
429.00,0.0764
428.00,0.0802
427.00,0.0848
426.00,0.0891
425.00,0.0910
424.00,0.0896
423.00,0.0866
422.00,0.0838
421.00,0.0816
420.00,0.0796
419.00,0.0787
418.00,0.0797
417.00,0.0815
416.00,0.0832
415.00,0.0854
414.00,0.0886
413.00,0.0918
412.00,0.0943
411.00,0.0969
410.00,0.1004
409.00,0.1035
408.00,0.1053
407.00,0.1064
406.00,0.1077
405.00,0.1084
404.00,0.1076
403.00,0.1065
402.00,0.1067
401.00,0.1072
400.00,0.1064
