Created as New Dataset,Sample 835 By YargerLab Date Saturday, April 18 2026
cm-1,A
4000.00,0.0013
3999.00,0.0014
3998.00,0.0014
3997.00,0.0014
3996.00,0.0014
3995.00,0.0014
3994.00,0.0014
3993.00,0.0014
3992.00,0.0014
3991.00,0.0014
3990.00,0.0014
3989.00,0.0014
3988.00,0.0014
3987.00,0.0014
3986.00,0.0014
3985.00,0.0014
3984.00,0.0014
3983.00,0.0013
3982.00,0.0013
3981.00,0.0013
3980.00,0.0013
3979.00,0.0013
3978.00,0.0013
3977.00,0.0013
3976.00,0.0013
3975.00,0.0013
3974.00,0.0013
3973.00,0.0014
3972.00,0.0014
3971.00,0.0014
3970.00,0.0014
3969.00,0.0014
3968.00,0.0014
3967.00,0.0014
3966.00,0.0014
3965.00,0.0014
3964.00,0.0014
3963.00,0.0013
3962.00,0.0013
3961.00,0.0013
3960.00,0.0013
3959.00,0.0013
3958.00,0.0013
3957.00,0.0013
3956.00,0.0014
3955.00,0.0014
3954.00,0.0014
3953.00,0.0014
3952.00,0.0014
3951.00,0.0014
3950.00,0.0014
3949.00,0.0014
3948.00,0.0014
3947.00,0.0014
3946.00,0.0014
3945.00,0.0014
3944.00,0.0014
3943.00,0.0014
3942.00,0.0014
3941.00,0.0014
3940.00,0.0014
3939.00,0.0013
3938.00,0.0013
3937.00,0.0013
3936.00,0.0013
3935.00,0.0013
3934.00,0.0014
3933.00,0.0014
3932.00,0.0014
3931.00,0.0014
3930.00,0.0014
3929.00,0.0014
3928.00,0.0014
3927.00,0.0014
3926.00,0.0014
3925.00,0.0014
3924.00,0.0014
3923.00,0.0014
3922.00,0.0014
3921.00,0.0014
3920.00,0.0014
3919.00,0.0014
3918.00,0.0014
3917.00,0.0014
3916.00,0.0014
3915.00,0.0014
3914.00,0.0014
3913.00,0.0014
3912.00,0.0013
3911.00,0.0013
3910.00,0.0014
3909.00,0.0014
3908.00,0.0014
3907.00,0.0014
3906.00,0.0014
3905.00,0.0014
3904.00,0.0014
3903.00,0.0014
3902.00,0.0014
3901.00,0.0014
3900.00,0.0014
3899.00,0.0014
3898.00,0.0014
3897.00,0.0014
3896.00,0.0014
3895.00,0.0014
3894.00,0.0014
3893.00,0.0014
3892.00,0.0014
3891.00,0.0014
3890.00,0.0014
3889.00,0.0014
3888.00,0.0014
3887.00,0.0014
3886.00,0.0014
3885.00,0.0014
3884.00,0.0013
3883.00,0.0013
3882.00,0.0013
3881.00,0.0014
3880.00,0.0014
3879.00,0.0013
3878.00,0.0013
3877.00,0.0013
3876.00,0.0013
3875.00,0.0013
3874.00,0.0013
3873.00,0.0013
3872.00,0.0013
3871.00,0.0014
3870.00,0.0014
3869.00,0.0013
3868.00,0.0013
3867.00,0.0014
3866.00,0.0014
3865.00,0.0014
3864.00,0.0014
3863.00,0.0014
3862.00,0.0014
3861.00,0.0014
3860.00,0.0014
3859.00,0.0014
3858.00,0.0013
3857.00,0.0013
3856.00,0.0013
3855.00,0.0013
3854.00,0.0013
3853.00,0.0013
3852.00,0.0013
3851.00,0.0013
3850.00,0.0013
3849.00,0.0013
3848.00,0.0013
3847.00,0.0014
3846.00,0.0014
3845.00,0.0014
3844.00,0.0014
3843.00,0.0014
3842.00,0.0013
3841.00,0.0013
3840.00,0.0013
3839.00,0.0013
3838.00,0.0013
3837.00,0.0013
3836.00,0.0013
3835.00,0.0013
3834.00,0.0013
3833.00,0.0013
3832.00,0.0013
3831.00,0.0013
3830.00,0.0013
3829.00,0.0013
3828.00,0.0013
3827.00,0.0014
3826.00,0.0013
3825.00,0.0013
3824.00,0.0013
3823.00,0.0013
3822.00,0.0013
3821.00,0.0013
3820.00,0.0013
3819.00,0.0013
3818.00,0.0013
3817.00,0.0013
3816.00,0.0013
3815.00,0.0013
3814.00,0.0013
3813.00,0.0013
3812.00,0.0014
3811.00,0.0014
3810.00,0.0014
3809.00,0.0014
3808.00,0.0014
3807.00,0.0014
3806.00,0.0014
3805.00,0.0013
3804.00,0.0013
3803.00,0.0013
3802.00,0.0013
3801.00,0.0013
3800.00,0.0013
3799.00,0.0013
3798.00,0.0013
3797.00,0.0013
3796.00,0.0013
3795.00,0.0013
3794.00,0.0013
3793.00,0.0013
3792.00,0.0013
3791.00,0.0013
3790.00,0.0013
3789.00,0.0014
3788.00,0.0014
3787.00,0.0013
3786.00,0.0013
3785.00,0.0013
3784.00,0.0013
3783.00,0.0013
3782.00,0.0013
3781.00,0.0013
3780.00,0.0014
3779.00,0.0014
3778.00,0.0013
3777.00,0.0013
3776.00,0.0013
3775.00,0.0013
3774.00,0.0013
3773.00,0.0013
3772.00,0.0013
3771.00,0.0013
3770.00,0.0013
3769.00,0.0013
3768.00,0.0013
3767.00,0.0014
3766.00,0.0014
3765.00,0.0014
3764.00,0.0014
3763.00,0.0014
3762.00,0.0014
3761.00,0.0014
3760.00,0.0014
3759.00,0.0014
3758.00,0.0014
3757.00,0.0014
3756.00,0.0014
3755.00,0.0014
3754.00,0.0014
3753.00,0.0014
3752.00,0.0014
3751.00,0.0014
3750.00,0.0014
3749.00,0.0014
3748.00,0.0014
3747.00,0.0014
3746.00,0.0014
3745.00,0.0014
3744.00,0.0013
3743.00,0.0013
3742.00,0.0013
3741.00,0.0014
3740.00,0.0014
3739.00,0.0013
3738.00,0.0013
3737.00,0.0013
3736.00,0.0013
3735.00,0.0013
3734.00,0.0013
3733.00,0.0014
3732.00,0.0014
3731.00,0.0014
3730.00,0.0014
3729.00,0.0014
3728.00,0.0014
3727.00,0.0014
3726.00,0.0013
3725.00,0.0013
3724.00,0.0013
3723.00,0.0013
3722.00,0.0013
3721.00,0.0013
3720.00,0.0012
3719.00,0.0012
3718.00,0.0012
3717.00,0.0012
3716.00,0.0013
3715.00,0.0013
3714.00,0.0013
3713.00,0.0014
3712.00,0.0013
3711.00,0.0013
3710.00,0.0012
3709.00,0.0012
3708.00,0.0012
3707.00,0.0012
3706.00,0.0013
3705.00,0.0013
3704.00,0.0013
3703.00,0.0013
3702.00,0.0013
3701.00,0.0013
3700.00,0.0013
3699.00,0.0012
3698.00,0.0012
3697.00,0.0012
3696.00,0.0012
3695.00,0.0012
3694.00,0.0012
3693.00,0.0012
3692.00,0.0012
3691.00,0.0012
3690.00,0.0012
3689.00,0.0012
3688.00,0.0012
3687.00,0.0012
3686.00,0.0012
3685.00,0.0012
3684.00,0.0012
3683.00,0.0012
3682.00,0.0012
3681.00,0.0012
3680.00,0.0012
3679.00,0.0012
3678.00,0.0012
3677.00,0.0012
3676.00,0.0012
3675.00,0.0012
3674.00,0.0011
3673.00,0.0011
3672.00,0.0011
3671.00,0.0012
3670.00,0.0012
3669.00,0.0012
3668.00,0.0012
3667.00,0.0012
3666.00,0.0013
3665.00,0.0013
3664.00,0.0013
3663.00,0.0013
3662.00,0.0013
3661.00,0.0012
3660.00,0.0012
3659.00,0.0012
3658.00,0.0012
3657.00,0.0013
3656.00,0.0013
3655.00,0.0013
3654.00,0.0013
3653.00,0.0013
3652.00,0.0013
3651.00,0.0013
3650.00,0.0013
3649.00,0.0013
3648.00,0.0013
3647.00,0.0013
3646.00,0.0013
3645.00,0.0013
3644.00,0.0013
3643.00,0.0013
3642.00,0.0013
3641.00,0.0013
3640.00,0.0012
3639.00,0.0012
3638.00,0.0012
3637.00,0.0011
3636.00,0.0012
3635.00,0.0012
3634.00,0.0012
3633.00,0.0012
3632.00,0.0012
3631.00,0.0012
3630.00,0.0012
3629.00,0.0012
3628.00,0.0013
3627.00,0.0013
3626.00,0.0013
3625.00,0.0013
3624.00,0.0012
3623.00,0.0012
3622.00,0.0012
3621.00,0.0012
3620.00,0.0012
3619.00,0.0012
3618.00,0.0012
3617.00,0.0012
3616.00,0.0012
3615.00,0.0012
3614.00,0.0012
3613.00,0.0012
3612.00,0.0013
3611.00,0.0013
3610.00,0.0013
3609.00,0.0013
3608.00,0.0013
3607.00,0.0012
3606.00,0.0012
3605.00,0.0012
3604.00,0.0012
3603.00,0.0012
3602.00,0.0012
3601.00,0.0012
3600.00,0.0012
3599.00,0.0012
3598.00,0.0012
3597.00,0.0012
3596.00,0.0012
3595.00,0.0012
3594.00,0.0012
3593.00,0.0012
3592.00,0.0012
3591.00,0.0012
3590.00,0.0012
3589.00,0.0012
3588.00,0.0012
3587.00,0.0013
3586.00,0.0013
3585.00,0.0012
3584.00,0.0012
3583.00,0.0012
3582.00,0.0013
3581.00,0.0013
3580.00,0.0013
3579.00,0.0012
3578.00,0.0012
3577.00,0.0012
3576.00,0.0012
3575.00,0.0012
3574.00,0.0012
3573.00,0.0012
3572.00,0.0012
3571.00,0.0013
3570.00,0.0013
3569.00,0.0013
3568.00,0.0014
3567.00,0.0014
3566.00,0.0013
3565.00,0.0013
3564.00,0.0012
3563.00,0.0012
3562.00,0.0012
3561.00,0.0012
3560.00,0.0012
3559.00,0.0012
3558.00,0.0012
3557.00,0.0012
3556.00,0.0012
3555.00,0.0012
3554.00,0.0013
3553.00,0.0013
3552.00,0.0013
3551.00,0.0013
3550.00,0.0013
3549.00,0.0013
3548.00,0.0013
3547.00,0.0013
3546.00,0.0013
3545.00,0.0012
3544.00,0.0012
3543.00,0.0012
3542.00,0.0012
3541.00,0.0012
3540.00,0.0012
3539.00,0.0013
3538.00,0.0013
3537.00,0.0013
3536.00,0.0013
3535.00,0.0013
3534.00,0.0013
3533.00,0.0013
3532.00,0.0013
3531.00,0.0013
3530.00,0.0013
3529.00,0.0013
3528.00,0.0014
3527.00,0.0014
3526.00,0.0014
3525.00,0.0014
3524.00,0.0014
3523.00,0.0013
3522.00,0.0013
3521.00,0.0013
3520.00,0.0013
3519.00,0.0013
3518.00,0.0013
3517.00,0.0013
3516.00,0.0013
3515.00,0.0013
3514.00,0.0013
3513.00,0.0013
3512.00,0.0013
3511.00,0.0013
3510.00,0.0013
3509.00,0.0013
3508.00,0.0013
3507.00,0.0013
3506.00,0.0013
3505.00,0.0013
3504.00,0.0013
3503.00,0.0013
3502.00,0.0014
3501.00,0.0014
3500.00,0.0014
3499.00,0.0014
3498.00,0.0013
3497.00,0.0013
3496.00,0.0013
3495.00,0.0013
3494.00,0.0013
3493.00,0.0013
3492.00,0.0013
3491.00,0.0013
3490.00,0.0013
3489.00,0.0013
3488.00,0.0013
3487.00,0.0013
3486.00,0.0013
3485.00,0.0013
3484.00,0.0013
3483.00,0.0013
3482.00,0.0013
3481.00,0.0013
3480.00,0.0013
3479.00,0.0013
3478.00,0.0013
3477.00,0.0014
3476.00,0.0014
3475.00,0.0014
3474.00,0.0014
3473.00,0.0014
3472.00,0.0014
3471.00,0.0014
3470.00,0.0014
3469.00,0.0014
3468.00,0.0014
3467.00,0.0014
3466.00,0.0014
3465.00,0.0014
3464.00,0.0014
3463.00,0.0014
3462.00,0.0014
3461.00,0.0014
3460.00,0.0014
3459.00,0.0014
3458.00,0.0014
3457.00,0.0014
3456.00,0.0014
3455.00,0.0014
3454.00,0.0014
3453.00,0.0014
3452.00,0.0014
3451.00,0.0014
3450.00,0.0014
3449.00,0.0014
3448.00,0.0014
3447.00,0.0014
3446.00,0.0014
3445.00,0.0014
3444.00,0.0014
3443.00,0.0014
3442.00,0.0014
3441.00,0.0014
3440.00,0.0014
3439.00,0.0014
3438.00,0.0014
3437.00,0.0014
3436.00,0.0014
3435.00,0.0014
3434.00,0.0014
3433.00,0.0014
3432.00,0.0014
3431.00,0.0014
3430.00,0.0014
3429.00,0.0014
3428.00,0.0013
3427.00,0.0013
3426.00,0.0014
3425.00,0.0014
3424.00,0.0014
3423.00,0.0014
3422.00,0.0014
3421.00,0.0014
3420.00,0.0014
3419.00,0.0014
3418.00,0.0014
3417.00,0.0014
3416.00,0.0014
3415.00,0.0014
3414.00,0.0014
3413.00,0.0014
3412.00,0.0014
3411.00,0.0014
3410.00,0.0014
3409.00,0.0014
3408.00,0.0014
3407.00,0.0014
3406.00,0.0014
3405.00,0.0014
3404.00,0.0014
3403.00,0.0014
3402.00,0.0014
3401.00,0.0014
3400.00,0.0014
3399.00,0.0014
3398.00,0.0014
3397.00,0.0015
3396.00,0.0015
3395.00,0.0015
3394.00,0.0015
3393.00,0.0015
3392.00,0.0014
3391.00,0.0014
3390.00,0.0014
3389.00,0.0014
3388.00,0.0014
3387.00,0.0014
3386.00,0.0013
3385.00,0.0013
3384.00,0.0013
3383.00,0.0013
3382.00,0.0014
3381.00,0.0014
3380.00,0.0014
3379.00,0.0014
3378.00,0.0014
3377.00,0.0014
3376.00,0.0014
3375.00,0.0015
3374.00,0.0014
3373.00,0.0014
3372.00,0.0014
3371.00,0.0014
3370.00,0.0014
3369.00,0.0014
3368.00,0.0015
3367.00,0.0015
3366.00,0.0015
3365.00,0.0015
3364.00,0.0015
3363.00,0.0015
3362.00,0.0015
3361.00,0.0014
3360.00,0.0014
3359.00,0.0014
3358.00,0.0014
3357.00,0.0014
3356.00,0.0014
3355.00,0.0014
3354.00,0.0014
3353.00,0.0014
3352.00,0.0014
3351.00,0.0014
3350.00,0.0014
3349.00,0.0014
3348.00,0.0014
3347.00,0.0014
3346.00,0.0014
3345.00,0.0014
3344.00,0.0014
3343.00,0.0014
3342.00,0.0014
3341.00,0.0014
3340.00,0.0014
3339.00,0.0014
3338.00,0.0014
3337.00,0.0014
3336.00,0.0014
3335.00,0.0014
3334.00,0.0014
3333.00,0.0014
3332.00,0.0014
3331.00,0.0014
3330.00,0.0014
3329.00,0.0014
3328.00,0.0014
3327.00,0.0014
3326.00,0.0014
3325.00,0.0014
3324.00,0.0014
3323.00,0.0014
3322.00,0.0015
3321.00,0.0015
3320.00,0.0015
3319.00,0.0015
3318.00,0.0015
3317.00,0.0014
3316.00,0.0014
3315.00,0.0014
3314.00,0.0014
3313.00,0.0014
3312.00,0.0014
3311.00,0.0014
3310.00,0.0014
3309.00,0.0014
3308.00,0.0014
3307.00,0.0014
3306.00,0.0014
3305.00,0.0014
3304.00,0.0014
3303.00,0.0014
3302.00,0.0014
3301.00,0.0014
3300.00,0.0014
3299.00,0.0014
3298.00,0.0014
3297.00,0.0014
3296.00,0.0014
3295.00,0.0014
3294.00,0.0014
3293.00,0.0014
3292.00,0.0014
3291.00,0.0014
3290.00,0.0014
3289.00,0.0014
3288.00,0.0014
3287.00,0.0014
3286.00,0.0014
3285.00,0.0014
3284.00,0.0014
3283.00,0.0014
3282.00,0.0014
3281.00,0.0014
3280.00,0.0014
3279.00,0.0014
3278.00,0.0014
3277.00,0.0014
3276.00,0.0014
3275.00,0.0014
3274.00,0.0014
3273.00,0.0014
3272.00,0.0014
3271.00,0.0014
3270.00,0.0014
3269.00,0.0014
3268.00,0.0014
3267.00,0.0014
3266.00,0.0014
3265.00,0.0014
3264.00,0.0014
3263.00,0.0014
3262.00,0.0014
3261.00,0.0014
3260.00,0.0014
3259.00,0.0013
3258.00,0.0013
3257.00,0.0013
3256.00,0.0013
3255.00,0.0013
3254.00,0.0013
3253.00,0.0013
3252.00,0.0013
3251.00,0.0013
3250.00,0.0013
3249.00,0.0013
3248.00,0.0013
3247.00,0.0013
3246.00,0.0013
3245.00,0.0014
3244.00,0.0014
3243.00,0.0014
3242.00,0.0014
3241.00,0.0013
3240.00,0.0013
3239.00,0.0013
3238.00,0.0013
3237.00,0.0013
3236.00,0.0013
3235.00,0.0013
3234.00,0.0013
3233.00,0.0013
3232.00,0.0013
3231.00,0.0013
3230.00,0.0013
3229.00,0.0014
3228.00,0.0014
3227.00,0.0014
3226.00,0.0014
3225.00,0.0014
3224.00,0.0013
3223.00,0.0013
3222.00,0.0013
3221.00,0.0013
3220.00,0.0013
3219.00,0.0013
3218.00,0.0013
3217.00,0.0013
3216.00,0.0013
3215.00,0.0013
3214.00,0.0013
3213.00,0.0013
3212.00,0.0013
3211.00,0.0013
3210.00,0.0013
3209.00,0.0013
3208.00,0.0013
3207.00,0.0013
3206.00,0.0013
3205.00,0.0013
3204.00,0.0013
3203.00,0.0013
3202.00,0.0013
3201.00,0.0013
3200.00,0.0013
3199.00,0.0013
3198.00,0.0013
3197.00,0.0013
3196.00,0.0013
3195.00,0.0013
3194.00,0.0013
3193.00,0.0013
3192.00,0.0013
3191.00,0.0013
3190.00,0.0012
3189.00,0.0012
3188.00,0.0012
3187.00,0.0013
3186.00,0.0013
3185.00,0.0013
3184.00,0.0013
3183.00,0.0013
3182.00,0.0013
3181.00,0.0013
3180.00,0.0013
3179.00,0.0012
3178.00,0.0012
3177.00,0.0012
3176.00,0.0013
3175.00,0.0013
3174.00,0.0013
3173.00,0.0013
3172.00,0.0013
3171.00,0.0013
3170.00,0.0013
3169.00,0.0013
3168.00,0.0013
3167.00,0.0013
3166.00,0.0013
3165.00,0.0013
3164.00,0.0013
3163.00,0.0013
3162.00,0.0013
3161.00,0.0013
3160.00,0.0013
3159.00,0.0013
3158.00,0.0013
3157.00,0.0013
3156.00,0.0013
3155.00,0.0013
3154.00,0.0013
3153.00,0.0012
3152.00,0.0012
3151.00,0.0012
3150.00,0.0012
3149.00,0.0012
3148.00,0.0012
3147.00,0.0013
3146.00,0.0013
3145.00,0.0013
3144.00,0.0013
3143.00,0.0012
3142.00,0.0012
3141.00,0.0012
3140.00,0.0012
3139.00,0.0012
3138.00,0.0012
3137.00,0.0012
3136.00,0.0012
3135.00,0.0012
3134.00,0.0012
3133.00,0.0012
3132.00,0.0012
3131.00,0.0012
3130.00,0.0012
3129.00,0.0012
3128.00,0.0012
3127.00,0.0012
3126.00,0.0012
3125.00,0.0012
3124.00,0.0012
3123.00,0.0012
3122.00,0.0013
3121.00,0.0013
3120.00,0.0013
3119.00,0.0013
3118.00,0.0013
3117.00,0.0013
3116.00,0.0013
3115.00,0.0013
3114.00,0.0013
3113.00,0.0013
3112.00,0.0014
3111.00,0.0015
3110.00,0.0015
3109.00,0.0016
3108.00,0.0016
3107.00,0.0016
3106.00,0.0016
3105.00,0.0016
3104.00,0.0016
3103.00,0.0017
3102.00,0.0017
3101.00,0.0017
3100.00,0.0017
3099.00,0.0017
3098.00,0.0017
3097.00,0.0017
3096.00,0.0017
3095.00,0.0017
3094.00,0.0017
3093.00,0.0017
3092.00,0.0018
3091.00,0.0019
3090.00,0.0020
3089.00,0.0021
3088.00,0.0022
3087.00,0.0024
3086.00,0.0026
3085.00,0.0027
3084.00,0.0029
3083.00,0.0030
3082.00,0.0031
3081.00,0.0031
3080.00,0.0030
3079.00,0.0029
3078.00,0.0028
3077.00,0.0027
3076.00,0.0026
3075.00,0.0025
3074.00,0.0024
3073.00,0.0024
3072.00,0.0024
3071.00,0.0024
3070.00,0.0025
3069.00,0.0026
3068.00,0.0027
3067.00,0.0029
3066.00,0.0030
3065.00,0.0032
3064.00,0.0033
3063.00,0.0035
3062.00,0.0037
3061.00,0.0038
3060.00,0.0039
3059.00,0.0039
3058.00,0.0039
3057.00,0.0038
3056.00,0.0036
3055.00,0.0035
3054.00,0.0033
3053.00,0.0031
3052.00,0.0030
3051.00,0.0028
3050.00,0.0027
3049.00,0.0026
3048.00,0.0025
3047.00,0.0024
3046.00,0.0024
3045.00,0.0024
3044.00,0.0024
3043.00,0.0024
3042.00,0.0024
3041.00,0.0025
3040.00,0.0026
3039.00,0.0027
3038.00,0.0028
3037.00,0.0030
3036.00,0.0032
3035.00,0.0034
3034.00,0.0037
3033.00,0.0040
3032.00,0.0043
3031.00,0.0047
3030.00,0.0051
3029.00,0.0056
3028.00,0.0060
3027.00,0.0063
3026.00,0.0065
3025.00,0.0067
3024.00,0.0066
3023.00,0.0064
3022.00,0.0061
3021.00,0.0057
3020.00,0.0052
3019.00,0.0047
3018.00,0.0042
3017.00,0.0038
3016.00,0.0034
3015.00,0.0031
3014.00,0.0029
3013.00,0.0027
3012.00,0.0025
3011.00,0.0024
3010.00,0.0024
3009.00,0.0023
3008.00,0.0023
3007.00,0.0023
3006.00,0.0023
3005.00,0.0024
3004.00,0.0024
3003.00,0.0024
3002.00,0.0025
3001.00,0.0025
3000.00,0.0024
2999.00,0.0024
2998.00,0.0023
2997.00,0.0023
2996.00,0.0022
2995.00,0.0021
2994.00,0.0020
2993.00,0.0019
2992.00,0.0019
2991.00,0.0018
2990.00,0.0018
2989.00,0.0018
2988.00,0.0018
2987.00,0.0018
2986.00,0.0018
2985.00,0.0018
2984.00,0.0018
2983.00,0.0018
2982.00,0.0018
2981.00,0.0018
2980.00,0.0018
2979.00,0.0019
2978.00,0.0019
2977.00,0.0019
2976.00,0.0019
2975.00,0.0019
2974.00,0.0019
2973.00,0.0020
2972.00,0.0020
2971.00,0.0020
2970.00,0.0020
2969.00,0.0021
2968.00,0.0021
2967.00,0.0022
2966.00,0.0023
2965.00,0.0023
2964.00,0.0024
2963.00,0.0024
2962.00,0.0025
2961.00,0.0025
2960.00,0.0026
2959.00,0.0026
2958.00,0.0027
2957.00,0.0027
2956.00,0.0028
2955.00,0.0029
2954.00,0.0030
2953.00,0.0030
2952.00,0.0031
2951.00,0.0032
2950.00,0.0033
2949.00,0.0034
2948.00,0.0035
2947.00,0.0037
2946.00,0.0038
2945.00,0.0039
2944.00,0.0041
2943.00,0.0042
2942.00,0.0044
2941.00,0.0046
2940.00,0.0048
2939.00,0.0051
2938.00,0.0053
2937.00,0.0056
2936.00,0.0059
2935.00,0.0061
2934.00,0.0064
2933.00,0.0067
2932.00,0.0070
2931.00,0.0073
2930.00,0.0075
2929.00,0.0078
2928.00,0.0080
2927.00,0.0082
2926.00,0.0084
2925.00,0.0086
2924.00,0.0087
2923.00,0.0088
2922.00,0.0088
2921.00,0.0089
2920.00,0.0089
2919.00,0.0088
2918.00,0.0088
2917.00,0.0086
2916.00,0.0085
2915.00,0.0083
2914.00,0.0081
2913.00,0.0079
2912.00,0.0077
2911.00,0.0075
2910.00,0.0073
2909.00,0.0071
2908.00,0.0069
2907.00,0.0066
2906.00,0.0064
2905.00,0.0062
2904.00,0.0060
2903.00,0.0058
2902.00,0.0056
2901.00,0.0054
2900.00,0.0052
2899.00,0.0050
2898.00,0.0048
2897.00,0.0047
2896.00,0.0045
2895.00,0.0044
2894.00,0.0043
2893.00,0.0042
2892.00,0.0041
2891.00,0.0040
2890.00,0.0039
2889.00,0.0038
2888.00,0.0037
2887.00,0.0036
2886.00,0.0035
2885.00,0.0034
2884.00,0.0034
2883.00,0.0033
2882.00,0.0033
2881.00,0.0032
2880.00,0.0032
2879.00,0.0031
2878.00,0.0031
2877.00,0.0030
2876.00,0.0030
2875.00,0.0029
2874.00,0.0029
2873.00,0.0029
2872.00,0.0029
2871.00,0.0029
2870.00,0.0029
2869.00,0.0029
2868.00,0.0029
2867.00,0.0029
2866.00,0.0029
2865.00,0.0029
2864.00,0.0030
2863.00,0.0031
2862.00,0.0031
2861.00,0.0032
2860.00,0.0033
2859.00,0.0035
2858.00,0.0036
2857.00,0.0038
2856.00,0.0039
2855.00,0.0041
2854.00,0.0042
2853.00,0.0043
2852.00,0.0044
2851.00,0.0045
2850.00,0.0045
2849.00,0.0045
2848.00,0.0045
2847.00,0.0044
2846.00,0.0043
2845.00,0.0041
2844.00,0.0039
2843.00,0.0037
2842.00,0.0035
2841.00,0.0033
2840.00,0.0031
2839.00,0.0028
2838.00,0.0026
2837.00,0.0025
2836.00,0.0023
2835.00,0.0022
2834.00,0.0020
2833.00,0.0019
2832.00,0.0019
2831.00,0.0018
2830.00,0.0018
2829.00,0.0017
2828.00,0.0017
2827.00,0.0017
2826.00,0.0016
2825.00,0.0016
2824.00,0.0016
2823.00,0.0016
2822.00,0.0015
2821.00,0.0015
2820.00,0.0015
2819.00,0.0015
2818.00,0.0015
2817.00,0.0014
2816.00,0.0014
2815.00,0.0014
2814.00,0.0014
2813.00,0.0015
2812.00,0.0015
2811.00,0.0014
2810.00,0.0014
2809.00,0.0014
2808.00,0.0014
2807.00,0.0014
2806.00,0.0014
2805.00,0.0014
2804.00,0.0014
2803.00,0.0014
2802.00,0.0014
2801.00,0.0014
2800.00,0.0014
2799.00,0.0014
2798.00,0.0014
2797.00,0.0014
2796.00,0.0014
2795.00,0.0014
2794.00,0.0014
2793.00,0.0013
2792.00,0.0013
2791.00,0.0013
2790.00,0.0013
2789.00,0.0013
2788.00,0.0013
2787.00,0.0013
2786.00,0.0013
2785.00,0.0013
2784.00,0.0013
2783.00,0.0012
2782.00,0.0012
2781.00,0.0013
2780.00,0.0013
2779.00,0.0013
2778.00,0.0013
2777.00,0.0013
2776.00,0.0013
2775.00,0.0012
2774.00,0.0012
2773.00,0.0013
2772.00,0.0013
2771.00,0.0013
2770.00,0.0013
2769.00,0.0012
2768.00,0.0012
2767.00,0.0012
2766.00,0.0012
2765.00,0.0012
2764.00,0.0012
2763.00,0.0012
2762.00,0.0012
2761.00,0.0012
2760.00,0.0012
2759.00,0.0012
2758.00,0.0012
2757.00,0.0012
2756.00,0.0012
2755.00,0.0012
2754.00,0.0012
2753.00,0.0012
2752.00,0.0012
2751.00,0.0012
2750.00,0.0012
2749.00,0.0012
2748.00,0.0012
2747.00,0.0012
2746.00,0.0012
2745.00,0.0012
2744.00,0.0012
2743.00,0.0012
2742.00,0.0012
2741.00,0.0012
2740.00,0.0012
2739.00,0.0012
2738.00,0.0012
2737.00,0.0012
2736.00,0.0012
2735.00,0.0012
2734.00,0.0012
2733.00,0.0012
2732.00,0.0012
2731.00,0.0012
2730.00,0.0012
2729.00,0.0012
2728.00,0.0012
2727.00,0.0012
2726.00,0.0012
2725.00,0.0012
2724.00,0.0012
2723.00,0.0012
2722.00,0.0012
2721.00,0.0012
2720.00,0.0012
2719.00,0.0012
2718.00,0.0012
2717.00,0.0012
2716.00,0.0012
2715.00,0.0012
2714.00,0.0011
2713.00,0.0012
2712.00,0.0012
2711.00,0.0012
2710.00,0.0012
2709.00,0.0012
2708.00,0.0012
2707.00,0.0012
2706.00,0.0012
2705.00,0.0012
2704.00,0.0012
2703.00,0.0011
2702.00,0.0011
2701.00,0.0011
2700.00,0.0011
2699.00,0.0011
2698.00,0.0011
2697.00,0.0011
2696.00,0.0011
2695.00,0.0011
2694.00,0.0011
2693.00,0.0012
2692.00,0.0012
2691.00,0.0012
2690.00,0.0012
2689.00,0.0012
2688.00,0.0012
2687.00,0.0012
2686.00,0.0012
2685.00,0.0012
2684.00,0.0012
2683.00,0.0012
2682.00,0.0012
2681.00,0.0012
2680.00,0.0012
2679.00,0.0012
2678.00,0.0012
2677.00,0.0012
2676.00,0.0012
2675.00,0.0011
2674.00,0.0011
2673.00,0.0011
2672.00,0.0011
2671.00,0.0011
2670.00,0.0011
2669.00,0.0011
2668.00,0.0012
2667.00,0.0012
2666.00,0.0012
2665.00,0.0012
2664.00,0.0013
2663.00,0.0013
2662.00,0.0013
2661.00,0.0013
2660.00,0.0014
2659.00,0.0014
2658.00,0.0014
2657.00,0.0014
2656.00,0.0015
2655.00,0.0015
2654.00,0.0015
2653.00,0.0014
2652.00,0.0014
2651.00,0.0014
2650.00,0.0014
2649.00,0.0014
2648.00,0.0014
2647.00,0.0014
2646.00,0.0014
2645.00,0.0014
2644.00,0.0014
2643.00,0.0015
2642.00,0.0015
2641.00,0.0015
2640.00,0.0015
2639.00,0.0014
2638.00,0.0014
2637.00,0.0014
2636.00,0.0014
2635.00,0.0014
2634.00,0.0014
2633.00,0.0014
2632.00,0.0014
2631.00,0.0014
2630.00,0.0015
2629.00,0.0015
2628.00,0.0014
2627.00,0.0014
2626.00,0.0014
2625.00,0.0014
2624.00,0.0014
2623.00,0.0014
2622.00,0.0014
2621.00,0.0014
2620.00,0.0014
2619.00,0.0014
2618.00,0.0014
2617.00,0.0013
2616.00,0.0013
2615.00,0.0013
2614.00,0.0013
2613.00,0.0013
2612.00,0.0013
2611.00,0.0013
2610.00,0.0013
2609.00,0.0013
2608.00,0.0013
2607.00,0.0013
2606.00,0.0013
2605.00,0.0013
2604.00,0.0013
2603.00,0.0013
2602.00,0.0013
2601.00,0.0013
2600.00,0.0013
2599.00,0.0013
2598.00,0.0013
2597.00,0.0012
2596.00,0.0012
2595.00,0.0012
2594.00,0.0011
2593.00,0.0011
2592.00,0.0011
2591.00,0.0011
2590.00,0.0011
2589.00,0.0011
2588.00,0.0011
2587.00,0.0011
2586.00,0.0011
2585.00,0.0011
2584.00,0.0011
2583.00,0.0012
2582.00,0.0012
2581.00,0.0011
2580.00,0.0011
2579.00,0.0011
2578.00,0.0011
2577.00,0.0011
2576.00,0.0011
2575.00,0.0011
2574.00,0.0011
2573.00,0.0011
2572.00,0.0011
2571.00,0.0011
2570.00,0.0011
2569.00,0.0011
2568.00,0.0011
2567.00,0.0011
2566.00,0.0011
2565.00,0.0010
2564.00,0.0010
2563.00,0.0010
2562.00,0.0010
2561.00,0.0010
2560.00,0.0010
2559.00,0.0010
2558.00,0.0010
2557.00,0.0011
2556.00,0.0011
2555.00,0.0010
2554.00,0.0010
2553.00,0.0010
2552.00,0.0010
2551.00,0.0010
2550.00,0.0010
2549.00,0.0010
2548.00,0.0010
2547.00,0.0010
2546.00,0.0010
2545.00,0.0010
2544.00,0.0010
2543.00,0.0010
2542.00,0.0010
2541.00,0.0010
2540.00,0.0010
2539.00,0.0010
2538.00,0.0010
2537.00,0.0010
2536.00,0.0010
2535.00,0.0009
2534.00,0.0009
2533.00,0.0009
2532.00,0.0009
2531.00,0.0009
2530.00,0.0009
2529.00,0.0009
2528.00,0.0009
2527.00,0.0009
2526.00,0.0009
2525.00,0.0009
2524.00,0.0009
2523.00,0.0009
2522.00,0.0009
2521.00,0.0010
2520.00,0.0010
2519.00,0.0009
2518.00,0.0009
2517.00,0.0009
2516.00,0.0009
2515.00,0.0009
2514.00,0.0009
2513.00,0.0009
2512.00,0.0009
2511.00,0.0009
2510.00,0.0009
2509.00,0.0009
2508.00,0.0008
2507.00,0.0008
2506.00,0.0008
2505.00,0.0008
2504.00,0.0009
2503.00,0.0009
2502.00,0.0009
2501.00,0.0009
2500.00,0.0009
2499.00,0.0009
2498.00,0.0008
2497.00,0.0009
2496.00,0.0009
2495.00,0.0009
2494.00,0.0009
2493.00,0.0009
2492.00,0.0009
2491.00,0.0008
2490.00,0.0008
2489.00,0.0008
2488.00,0.0008
2487.00,0.0008
2486.00,0.0008
2485.00,0.0009
2484.00,0.0009
2483.00,0.0009
2482.00,0.0008
2481.00,0.0008
2480.00,0.0008
2479.00,0.0008
2478.00,0.0008
2477.00,0.0008
2476.00,0.0008
2475.00,0.0008
2474.00,0.0008
2473.00,0.0008
2472.00,0.0008
2471.00,0.0008
2470.00,0.0008
2469.00,0.0008
2468.00,0.0009
2467.00,0.0009
2466.00,0.0009
2465.00,0.0009
2464.00,0.0009
2463.00,0.0009
2462.00,0.0009
2461.00,0.0009
2460.00,0.0009
2459.00,0.0008
2458.00,0.0008
2457.00,0.0008
2456.00,0.0008
2455.00,0.0008
2454.00,0.0008
2453.00,0.0008
2452.00,0.0008
2451.00,0.0008
2450.00,0.0009
2449.00,0.0009
2448.00,0.0009
2447.00,0.0008
2446.00,0.0008
2445.00,0.0008
2444.00,0.0008
2443.00,0.0008
2442.00,0.0008
2441.00,0.0008
2440.00,0.0008
2439.00,0.0008
2438.00,0.0008
2437.00,0.0008
2436.00,0.0008
2435.00,0.0008
2434.00,0.0008
2433.00,0.0008
2432.00,0.0007
2431.00,0.0007
2430.00,0.0007
2429.00,0.0007
2428.00,0.0007
2427.00,0.0007
2426.00,0.0006
2425.00,0.0006
2424.00,0.0007
2423.00,0.0007
2422.00,0.0007
2421.00,0.0007
2420.00,0.0007
2419.00,0.0007
2418.00,0.0007
2417.00,0.0006
2416.00,0.0007
2415.00,0.0007
2414.00,0.0007
2413.00,0.0006
2412.00,0.0006
2411.00,0.0006
2410.00,0.0005
2409.00,0.0005
2408.00,0.0005
2407.00,0.0005
2406.00,0.0005
2405.00,0.0006
2404.00,0.0006
2403.00,0.0006
2402.00,0.0006
2401.00,0.0007
2400.00,0.0007
2399.00,0.0007
2398.00,0.0006
2397.00,0.0006
2396.00,0.0006
2395.00,0.0006
2394.00,0.0006
2393.00,0.0006
2392.00,0.0006
2391.00,0.0005
2390.00,0.0005
2389.00,0.0005
2388.00,0.0005
2387.00,0.0005
2386.00,0.0005
2385.00,0.0005
2384.00,0.0004
2383.00,0.0004
2382.00,0.0003
2381.00,0.0003
2380.00,0.0002
2379.00,0.0001
2378.00,0.0001
2377.00,0.0001
2376.00,0.0001
2375.00,0.0002
2374.00,0.0002
2373.00,0.0002
2372.00,0.0001
2371.00,0.0000
2370.00,-0.0000
2369.00,-0.0000
2368.00,-0.0000
2367.00,0.0000
2366.00,0.0001
2365.00,0.0001
2364.00,0.0002
2363.00,0.0002
2362.00,0.0002
2361.00,0.0001
2360.00,0.0001
2359.00,0.0001
2358.00,0.0002
2357.00,0.0002
2356.00,0.0002
2355.00,0.0003
2354.00,0.0003
2353.00,0.0003
2352.00,0.0003
2351.00,0.0002
2350.00,0.0003
2349.00,0.0003
2348.00,0.0003
2347.00,0.0003
2346.00,0.0003
2345.00,0.0003
2344.00,0.0003
2343.00,0.0004
2342.00,0.0004
2341.00,0.0004
2340.00,0.0005
2339.00,0.0005
2338.00,0.0005
2337.00,0.0005
2336.00,0.0006
2335.00,0.0006
2334.00,0.0006
2333.00,0.0006
2332.00,0.0005
2331.00,0.0005
2330.00,0.0006
2329.00,0.0007
2328.00,0.0008
2327.00,0.0011
2326.00,0.0013
2325.00,0.0014
2324.00,0.0014
2323.00,0.0013
2322.00,0.0011
2321.00,0.0010
2320.00,0.0009
2319.00,0.0009
2318.00,0.0008
2317.00,0.0008
2316.00,0.0008
2315.00,0.0008
2314.00,0.0007
2313.00,0.0007
2312.00,0.0007
2311.00,0.0006
2310.00,0.0006
2309.00,0.0006
2308.00,0.0007
2307.00,0.0007
2306.00,0.0007
2305.00,0.0008
2304.00,0.0008
2303.00,0.0008
2302.00,0.0008
2301.00,0.0008
2300.00,0.0008
2299.00,0.0009
2298.00,0.0009
2297.00,0.0009
2296.00,0.0009
2295.00,0.0010
2294.00,0.0010
2293.00,0.0011
2292.00,0.0011
2291.00,0.0012
2290.00,0.0012
2289.00,0.0013
2288.00,0.0014
2287.00,0.0014
2286.00,0.0014
2285.00,0.0014
2284.00,0.0014
2283.00,0.0013
2282.00,0.0011
2281.00,0.0010
2280.00,0.0009
2279.00,0.0009
2278.00,0.0009
2277.00,0.0010
2276.00,0.0010
2275.00,0.0010
2274.00,0.0010
2273.00,0.0009
2272.00,0.0009
2271.00,0.0008
2270.00,0.0008
2269.00,0.0008
2268.00,0.0008
2267.00,0.0008
2266.00,0.0008
2265.00,0.0007
2264.00,0.0007
2263.00,0.0008
2262.00,0.0008
2261.00,0.0009
2260.00,0.0009
2259.00,0.0009
2258.00,0.0009
2257.00,0.0009
2256.00,0.0008
2255.00,0.0008
2254.00,0.0009
2253.00,0.0009
2252.00,0.0009
2251.00,0.0009
2250.00,0.0009
2249.00,0.0009
2248.00,0.0009
2247.00,0.0009
2246.00,0.0009
2245.00,0.0009
2244.00,0.0009
2243.00,0.0009
2242.00,0.0008
2241.00,0.0007
2240.00,0.0006
2239.00,0.0006
2238.00,0.0007
2237.00,0.0007
2236.00,0.0007
2235.00,0.0007
2234.00,0.0006
2233.00,0.0005
2232.00,0.0005
2231.00,0.0005
2230.00,0.0005
2229.00,0.0006
2228.00,0.0007
2227.00,0.0007
2226.00,0.0008
2225.00,0.0008
2224.00,0.0008
2223.00,0.0008
2222.00,0.0008
2221.00,0.0007
2220.00,0.0007
2219.00,0.0007
2218.00,0.0007
2217.00,0.0007
2216.00,0.0008
2215.00,0.0008
2214.00,0.0008
2213.00,0.0008
2212.00,0.0008
2211.00,0.0008
2210.00,0.0008
2209.00,0.0008
2208.00,0.0007
2207.00,0.0007
2206.00,0.0007
2205.00,0.0007
2204.00,0.0006
2203.00,0.0005
2202.00,0.0005
2201.00,0.0006
2200.00,0.0007
2199.00,0.0009
2198.00,0.0010
2197.00,0.0009
2196.00,0.0008
2195.00,0.0008
2194.00,0.0008
2193.00,0.0008
2192.00,0.0007
2191.00,0.0007
2190.00,0.0008
2189.00,0.0009
2188.00,0.0011
2187.00,0.0012
2186.00,0.0013
2185.00,0.0012
2184.00,0.0011
2183.00,0.0008
2182.00,0.0005
2181.00,0.0003
2180.00,0.0003
2179.00,0.0003
2178.00,0.0004
2177.00,0.0004
2176.00,0.0003
2175.00,0.0002
2174.00,0.0003
2173.00,0.0005
2172.00,0.0006
2171.00,0.0008
2170.00,0.0009
2169.00,0.0011
2168.00,0.0012
2167.00,0.0012
2166.00,0.0012
2165.00,0.0012
2164.00,0.0014
2163.00,0.0014
2162.00,0.0011
2161.00,0.0005
2160.00,-0.0003
2159.00,-0.0009
2158.00,-0.0012
2157.00,-0.0011
2156.00,-0.0009
2155.00,-0.0007
2154.00,-0.0005
2153.00,-0.0004
2152.00,-0.0004
2151.00,-0.0005
2150.00,-0.0005
2149.00,-0.0005
2148.00,-0.0006
2147.00,-0.0006
2146.00,-0.0006
2145.00,-0.0005
2144.00,-0.0004
2143.00,-0.0002
2142.00,-0.0002
2141.00,-0.0002
2140.00,-0.0002
2139.00,-0.0003
2138.00,-0.0004
2137.00,-0.0006
2136.00,-0.0008
2135.00,-0.0008
2134.00,-0.0008
2133.00,-0.0007
2132.00,-0.0005
2131.00,-0.0004
2130.00,-0.0004
2129.00,-0.0003
2128.00,-0.0002
2127.00,-0.0001
2126.00,0.0000
2125.00,0.0000
2124.00,0.0000
2123.00,0.0001
2122.00,0.0001
2121.00,0.0002
2120.00,0.0002
2119.00,0.0003
2118.00,0.0003
2117.00,0.0004
2116.00,0.0004
2115.00,0.0004
2114.00,0.0004
2113.00,0.0005
2112.00,0.0005
2111.00,0.0005
2110.00,0.0005
2109.00,0.0006
2108.00,0.0005
2107.00,0.0005
2106.00,0.0005
2105.00,0.0005
2104.00,0.0005
2103.00,0.0005
2102.00,0.0005
2101.00,0.0005
2100.00,0.0004
2099.00,0.0004
2098.00,0.0002
2097.00,0.0001
2096.00,0.0000
2095.00,0.0000
2094.00,0.0001
2093.00,0.0002
2092.00,0.0002
2091.00,0.0003
2090.00,0.0004
2089.00,0.0005
2088.00,0.0005
2087.00,0.0005
2086.00,0.0005
2085.00,0.0004
2084.00,0.0004
2083.00,0.0005
2082.00,0.0006
2081.00,0.0006
2080.00,0.0006
2079.00,0.0006
2078.00,0.0006
2077.00,0.0006
2076.00,0.0006
2075.00,0.0005
2074.00,0.0005
2073.00,0.0005
2072.00,0.0004
2071.00,0.0004
2070.00,0.0004
2069.00,0.0004
2068.00,0.0004
2067.00,0.0004
2066.00,0.0004
2065.00,0.0005
2064.00,0.0005
2063.00,0.0004
2062.00,0.0004
2061.00,0.0004
2060.00,0.0003
2059.00,0.0003
2058.00,0.0002
2057.00,0.0002
2056.00,0.0002
2055.00,0.0003
2054.00,0.0005
2053.00,0.0007
2052.00,0.0010
2051.00,0.0010
2050.00,0.0008
2049.00,0.0005
2048.00,0.0004
2047.00,0.0004
2046.00,0.0005
2045.00,0.0005
2044.00,0.0005
2043.00,0.0005
2042.00,0.0004
2041.00,0.0004
2040.00,0.0003
2039.00,0.0003
2038.00,0.0003
2037.00,0.0004
2036.00,0.0003
2035.00,0.0002
2034.00,0.0001
2033.00,-0.0000
2032.00,-0.0001
2031.00,-0.0001
2030.00,-0.0001
2029.00,-0.0000
2028.00,0.0000
2027.00,0.0000
2026.00,0.0001
2025.00,0.0002
2024.00,0.0003
2023.00,0.0004
2022.00,0.0004
2021.00,0.0003
2020.00,0.0002
2019.00,0.0001
2018.00,0.0002
2017.00,0.0004
2016.00,0.0005
2015.00,0.0005
2014.00,0.0004
2013.00,0.0003
2012.00,0.0002
2011.00,0.0001
2010.00,-0.0000
2009.00,-0.0001
2008.00,-0.0001
2007.00,-0.0001
2006.00,-0.0001
2005.00,-0.0001
2004.00,-0.0000
2003.00,-0.0000
2002.00,0.0000
2001.00,0.0001
2000.00,0.0001
1999.00,0.0002
1998.00,0.0002
1997.00,0.0003
1996.00,0.0005
1995.00,0.0006
1994.00,0.0007
1993.00,0.0006
1992.00,0.0005
1991.00,0.0004
1990.00,0.0003
1989.00,0.0003
1988.00,0.0004
1987.00,0.0005
1986.00,0.0006
1985.00,0.0007
1984.00,0.0008
1983.00,0.0011
1982.00,0.0013
1981.00,0.0014
1980.00,0.0014
1979.00,0.0012
1978.00,0.0009
1977.00,0.0005
1976.00,0.0002
1975.00,0.0001
1974.00,0.0001
1973.00,0.0001
1972.00,0.0002
1971.00,0.0002
1970.00,0.0002
1969.00,0.0001
1968.00,-0.0000
1967.00,-0.0000
1966.00,-0.0000
1965.00,0.0001
1964.00,0.0002
1963.00,0.0003
1962.00,0.0003
1961.00,0.0004
1960.00,0.0004
1959.00,0.0004
1958.00,0.0004
1957.00,0.0005
1956.00,0.0006
1955.00,0.0006
1954.00,0.0006
1953.00,0.0007
1952.00,0.0006
1951.00,0.0006
1950.00,0.0006
1949.00,0.0006
1948.00,0.0006
1947.00,0.0007
1946.00,0.0007
1945.00,0.0006
1944.00,0.0006
1943.00,0.0006
1942.00,0.0007
1941.00,0.0007
1940.00,0.0008
1939.00,0.0008
1938.00,0.0007
1937.00,0.0006
1936.00,0.0006
1935.00,0.0006
1934.00,0.0006
1933.00,0.0006
1932.00,0.0006
1931.00,0.0006
1930.00,0.0004
1929.00,0.0003
1928.00,0.0002
1927.00,0.0002
1926.00,0.0001
1925.00,0.0001
1924.00,0.0002
1923.00,0.0002
1922.00,0.0003
1921.00,0.0003
1920.00,0.0003
1919.00,0.0003
1918.00,0.0004
1917.00,0.0004
1916.00,0.0004
1915.00,0.0004
1914.00,0.0004
1913.00,0.0004
1912.00,0.0004
1911.00,0.0004
1910.00,0.0004
1909.00,0.0003
1908.00,0.0003
1907.00,0.0003
1906.00,0.0003
1905.00,0.0003
1904.00,0.0004
1903.00,0.0004
1902.00,0.0004
1901.00,0.0004
1900.00,0.0004
1899.00,0.0004
1898.00,0.0005
1897.00,0.0006
1896.00,0.0007
1895.00,0.0007
1894.00,0.0008
1893.00,0.0007
1892.00,0.0007
1891.00,0.0008
1890.00,0.0008
1889.00,0.0009
1888.00,0.0009
1887.00,0.0009
1886.00,0.0009
1885.00,0.0009
1884.00,0.0009
1883.00,0.0010
1882.00,0.0010
1881.00,0.0010
1880.00,0.0009
1879.00,0.0009
1878.00,0.0009
1877.00,0.0010
1876.00,0.0010
1875.00,0.0011
1874.00,0.0011
1873.00,0.0011
1872.00,0.0012
1871.00,0.0012
1870.00,0.0012
1869.00,0.0012
1868.00,0.0012
1867.00,0.0011
1866.00,0.0011
1865.00,0.0010
1864.00,0.0010
1863.00,0.0010
1862.00,0.0010
1861.00,0.0010
1860.00,0.0009
1859.00,0.0008
1858.00,0.0008
1857.00,0.0007
1856.00,0.0007
1855.00,0.0007
1854.00,0.0007
1853.00,0.0007
1852.00,0.0007
1851.00,0.0007
1850.00,0.0006
1849.00,0.0006
1848.00,0.0006
1847.00,0.0006
1846.00,0.0006
1845.00,0.0006
1844.00,0.0006
1843.00,0.0006
1842.00,0.0006
1841.00,0.0006
1840.00,0.0006
1839.00,0.0006
1838.00,0.0007
1837.00,0.0007
1836.00,0.0006
1835.00,0.0006
1834.00,0.0006
1833.00,0.0006
1832.00,0.0006
1831.00,0.0006
1830.00,0.0006
1829.00,0.0007
1828.00,0.0007
1827.00,0.0008
1826.00,0.0008
1825.00,0.0009
1824.00,0.0009
1823.00,0.0009
1822.00,0.0009
1821.00,0.0009
1820.00,0.0008
1819.00,0.0008
1818.00,0.0008
1817.00,0.0008
1816.00,0.0009
1815.00,0.0009
1814.00,0.0010
1813.00,0.0011
1812.00,0.0011
1811.00,0.0012
1810.00,0.0012
1809.00,0.0013
1808.00,0.0013
1807.00,0.0014
1806.00,0.0014
1805.00,0.0014
1804.00,0.0014
1803.00,0.0014
1802.00,0.0014
1801.00,0.0015
1800.00,0.0015
1799.00,0.0015
1798.00,0.0015
1797.00,0.0014
1796.00,0.0014
1795.00,0.0013
1794.00,0.0013
1793.00,0.0013
1792.00,0.0012
1791.00,0.0012
1790.00,0.0012
1789.00,0.0011
1788.00,0.0011
1787.00,0.0011
1786.00,0.0011
1785.00,0.0010
1784.00,0.0010
1783.00,0.0010
1782.00,0.0011
1781.00,0.0011
1780.00,0.0011
1779.00,0.0011
1778.00,0.0011
1777.00,0.0011
1776.00,0.0011
1775.00,0.0011
1774.00,0.0011
1773.00,0.0011
1772.00,0.0012
1771.00,0.0012
1770.00,0.0012
1769.00,0.0012
1768.00,0.0012
1767.00,0.0013
1766.00,0.0013
1765.00,0.0013
1764.00,0.0014
1763.00,0.0014
1762.00,0.0015
1761.00,0.0015
1760.00,0.0016
1759.00,0.0016
1758.00,0.0017
1757.00,0.0017
1756.00,0.0018
1755.00,0.0019
1754.00,0.0020
1753.00,0.0021
1752.00,0.0022
1751.00,0.0023
1750.00,0.0024
1749.00,0.0025
1748.00,0.0026
1747.00,0.0027
1746.00,0.0027
1745.00,0.0028
1744.00,0.0029
1743.00,0.0029
1742.00,0.0030
1741.00,0.0030
1740.00,0.0030
1739.00,0.0031
1738.00,0.0031
1737.00,0.0031
1736.00,0.0031
1735.00,0.0030
1734.00,0.0029
1733.00,0.0029
1732.00,0.0028
1731.00,0.0028
1730.00,0.0028
1729.00,0.0027
1728.00,0.0027
1727.00,0.0026
1726.00,0.0026
1725.00,0.0025
1724.00,0.0024
1723.00,0.0024
1722.00,0.0023
1721.00,0.0023
1720.00,0.0022
1719.00,0.0022
1718.00,0.0022
1717.00,0.0022
1716.00,0.0021
1715.00,0.0021
1714.00,0.0021
1713.00,0.0020
1712.00,0.0020
1711.00,0.0020
1710.00,0.0020
1709.00,0.0020
1708.00,0.0020
1707.00,0.0019
1706.00,0.0019
1705.00,0.0019
1704.00,0.0019
1703.00,0.0019
1702.00,0.0019
1701.00,0.0019
1700.00,0.0020
1699.00,0.0020
1698.00,0.0020
1697.00,0.0020
1696.00,0.0020
1695.00,0.0020
1694.00,0.0020
1693.00,0.0020
1692.00,0.0020
1691.00,0.0021
1690.00,0.0021
1689.00,0.0022
1688.00,0.0022
1687.00,0.0023
1686.00,0.0023
1685.00,0.0024
1684.00,0.0024
1683.00,0.0024
1682.00,0.0025
1681.00,0.0025
1680.00,0.0025
1679.00,0.0025
1678.00,0.0026
1677.00,0.0026
1676.00,0.0026
1675.00,0.0026
1674.00,0.0026
1673.00,0.0027
1672.00,0.0027
1671.00,0.0027
1670.00,0.0027
1669.00,0.0027
1668.00,0.0027
1667.00,0.0027
1666.00,0.0027
1665.00,0.0027
1664.00,0.0027
1663.00,0.0027
1662.00,0.0027
1661.00,0.0027
1660.00,0.0026
1659.00,0.0026
1658.00,0.0026
1657.00,0.0026
1656.00,0.0026
1655.00,0.0026
1654.00,0.0026
1653.00,0.0026
1652.00,0.0026
1651.00,0.0025
1650.00,0.0025
1649.00,0.0025
1648.00,0.0025
1647.00,0.0024
1646.00,0.0024
1645.00,0.0023
1644.00,0.0023
1643.00,0.0023
1642.00,0.0023
1641.00,0.0022
1640.00,0.0023
1639.00,0.0023
1638.00,0.0022
1637.00,0.0022
1636.00,0.0022
1635.00,0.0022
1634.00,0.0021
1633.00,0.0021
1632.00,0.0021
1631.00,0.0021
1630.00,0.0021
1629.00,0.0021
1628.00,0.0021
1627.00,0.0021
1626.00,0.0022
1625.00,0.0022
1624.00,0.0022
1623.00,0.0022
1622.00,0.0022
1621.00,0.0022
1620.00,0.0022
1619.00,0.0022
1618.00,0.0022
1617.00,0.0023
1616.00,0.0023
1615.00,0.0023
1614.00,0.0024
1613.00,0.0025
1612.00,0.0026
1611.00,0.0028
1610.00,0.0030
1609.00,0.0034
1608.00,0.0039
1607.00,0.0044
1606.00,0.0051
1605.00,0.0059
1604.00,0.0067
1603.00,0.0074
1602.00,0.0079
1601.00,0.0082
1600.00,0.0081
1599.00,0.0076
1598.00,0.0070
1597.00,0.0062
1596.00,0.0055
1595.00,0.0049
1594.00,0.0044
1593.00,0.0040
1592.00,0.0036
1591.00,0.0034
1590.00,0.0032
1589.00,0.0032
1588.00,0.0032
1587.00,0.0033
1586.00,0.0035
1585.00,0.0038
1584.00,0.0040
1583.00,0.0041
1582.00,0.0040
1581.00,0.0037
1580.00,0.0034
1579.00,0.0030
1578.00,0.0028
1577.00,0.0025
1576.00,0.0024
1575.00,0.0023
1574.00,0.0022
1573.00,0.0021
1572.00,0.0021
1571.00,0.0020
1570.00,0.0019
1569.00,0.0019
1568.00,0.0019
1567.00,0.0019
1566.00,0.0019
1565.00,0.0019
1564.00,0.0019
1563.00,0.0019
1562.00,0.0019
1561.00,0.0019
1560.00,0.0019
1559.00,0.0019
1558.00,0.0019
1557.00,0.0019
1556.00,0.0019
1555.00,0.0019
1554.00,0.0020
1553.00,0.0020
1552.00,0.0020
1551.00,0.0020
1550.00,0.0020
1549.00,0.0021
1548.00,0.0021
1547.00,0.0021
1546.00,0.0021
1545.00,0.0022
1544.00,0.0022
1543.00,0.0022
1542.00,0.0022
1541.00,0.0022
1540.00,0.0022
1539.00,0.0022
1538.00,0.0021
1537.00,0.0020
1536.00,0.0020
1535.00,0.0020
1534.00,0.0019
1533.00,0.0019
1532.00,0.0018
1531.00,0.0018
1530.00,0.0018
1529.00,0.0017
1528.00,0.0017
1527.00,0.0017
1526.00,0.0017
1525.00,0.0017
1524.00,0.0016
1523.00,0.0016
1522.00,0.0016
1521.00,0.0016
1520.00,0.0016
1519.00,0.0016
1518.00,0.0016
1517.00,0.0017
1516.00,0.0017
1515.00,0.0017
1514.00,0.0017
1513.00,0.0017
1512.00,0.0017
1511.00,0.0018
1510.00,0.0018
1509.00,0.0018
1508.00,0.0019
1507.00,0.0019
1506.00,0.0020
1505.00,0.0022
1504.00,0.0023
1503.00,0.0025
1502.00,0.0028
1501.00,0.0032
1500.00,0.0038
1499.00,0.0046
1498.00,0.0060
1497.00,0.0081
1496.00,0.0109
1495.00,0.0139
1494.00,0.0167
1493.00,0.0185
1492.00,0.0189
1491.00,0.0177
1490.00,0.0152
1489.00,0.0123
1488.00,0.0099
1487.00,0.0081
1486.00,0.0067
1485.00,0.0057
1484.00,0.0050
1483.00,0.0043
1482.00,0.0039
1481.00,0.0035
1480.00,0.0032
1479.00,0.0031
1478.00,0.0029
1477.00,0.0028
1476.00,0.0028
1475.00,0.0028
1474.00,0.0028
1473.00,0.0028
1472.00,0.0028
1471.00,0.0029
1470.00,0.0029
1469.00,0.0030
1468.00,0.0030
1467.00,0.0031
1466.00,0.0032
1465.00,0.0033
1464.00,0.0034
1463.00,0.0036
1462.00,0.0038
1461.00,0.0040
1460.00,0.0044
1459.00,0.0051
1458.00,0.0062
1457.00,0.0081
1456.00,0.0107
1455.00,0.0135
1454.00,0.0161
1453.00,0.0181
1452.00,0.0193
1451.00,0.0194
1450.00,0.0186
1449.00,0.0173
1448.00,0.0158
1447.00,0.0144
1446.00,0.0133
1445.00,0.0124
1444.00,0.0116
1443.00,0.0107
1442.00,0.0099
1441.00,0.0092
1440.00,0.0086
1439.00,0.0081
1438.00,0.0075
1437.00,0.0069
1436.00,0.0062
1435.00,0.0056
1434.00,0.0052
1433.00,0.0048
1432.00,0.0045
1431.00,0.0042
1430.00,0.0039
1429.00,0.0037
1428.00,0.0035
1427.00,0.0034
1426.00,0.0033
1425.00,0.0032
1424.00,0.0031
1423.00,0.0031
1422.00,0.0030
1421.00,0.0030
1420.00,0.0030
1419.00,0.0029
1418.00,0.0029
1417.00,0.0029
1416.00,0.0028
1415.00,0.0028
1414.00,0.0028
1413.00,0.0027
1412.00,0.0027
1411.00,0.0027
1410.00,0.0027
1409.00,0.0027
1408.00,0.0027
1407.00,0.0027
1406.00,0.0027
1405.00,0.0027
1404.00,0.0027
1403.00,0.0027
1402.00,0.0027
1401.00,0.0027
1400.00,0.0027
1399.00,0.0027
1398.00,0.0027
1397.00,0.0028
1396.00,0.0028
1395.00,0.0029
1394.00,0.0030
1393.00,0.0030
1392.00,0.0031
1391.00,0.0032
1390.00,0.0033
1389.00,0.0034
1388.00,0.0036
1387.00,0.0037
1386.00,0.0039
1385.00,0.0040
1384.00,0.0042
1383.00,0.0043
1382.00,0.0044
1381.00,0.0045
1380.00,0.0046
1379.00,0.0047
1378.00,0.0048
1377.00,0.0050
1376.00,0.0051
1375.00,0.0052
1374.00,0.0052
1373.00,0.0053
1372.00,0.0053
1371.00,0.0053
1370.00,0.0052
1369.00,0.0052
1368.00,0.0051
1367.00,0.0051
1366.00,0.0051
1365.00,0.0051
1364.00,0.0050
1363.00,0.0050
1362.00,0.0049
1361.00,0.0049
1360.00,0.0048
1359.00,0.0047
1358.00,0.0047
1357.00,0.0047
1356.00,0.0046
1355.00,0.0046
1354.00,0.0046
1353.00,0.0046
1352.00,0.0045
1351.00,0.0045
1350.00,0.0045
1349.00,0.0045
1348.00,0.0044
1347.00,0.0044
1346.00,0.0044
1345.00,0.0043
1344.00,0.0043
1343.00,0.0042
1342.00,0.0041
1341.00,0.0041
1340.00,0.0041
1339.00,0.0040
1338.00,0.0040
1337.00,0.0040
1336.00,0.0040
1335.00,0.0041
1334.00,0.0042
1333.00,0.0043
1332.00,0.0044
1331.00,0.0044
1330.00,0.0045
1329.00,0.0045
1328.00,0.0046
1327.00,0.0045
1326.00,0.0045
1325.00,0.0044
1324.00,0.0044
1323.00,0.0044
1322.00,0.0043
1321.00,0.0043
1320.00,0.0043
1319.00,0.0043
1318.00,0.0043
1317.00,0.0043
1316.00,0.0044
1315.00,0.0044
1314.00,0.0044
1313.00,0.0044
1312.00,0.0044
1311.00,0.0044
1310.00,0.0044
1309.00,0.0044
1308.00,0.0043
1307.00,0.0043
1306.00,0.0042
1305.00,0.0041
1304.00,0.0041
1303.00,0.0041
1302.00,0.0040
1301.00,0.0040
1300.00,0.0039
1299.00,0.0039
1298.00,0.0039
1297.00,0.0039
1296.00,0.0039
1295.00,0.0039
1294.00,0.0039
1293.00,0.0039
1292.00,0.0039
1291.00,0.0039
1290.00,0.0039
1289.00,0.0038
1288.00,0.0038
1287.00,0.0037
1286.00,0.0037
1285.00,0.0037
1284.00,0.0037
1283.00,0.0037
1282.00,0.0037
1281.00,0.0037
1280.00,0.0037
1279.00,0.0036
1278.00,0.0036
1277.00,0.0035
1276.00,0.0035
1275.00,0.0035
1274.00,0.0034
1273.00,0.0033
1272.00,0.0033
1271.00,0.0032
1270.00,0.0032
1269.00,0.0032
1268.00,0.0031
1267.00,0.0031
1266.00,0.0031
1265.00,0.0031
1264.00,0.0031
1263.00,0.0030
1262.00,0.0030
1261.00,0.0030
1260.00,0.0030
1259.00,0.0030
1258.00,0.0030
1257.00,0.0030
1256.00,0.0030
1255.00,0.0030
1254.00,0.0030
1253.00,0.0031
1252.00,0.0031
1251.00,0.0031
1250.00,0.0031
1249.00,0.0031
1248.00,0.0032
1247.00,0.0032
1246.00,0.0031
1245.00,0.0031
1244.00,0.0031
1243.00,0.0031
1242.00,0.0031
1241.00,0.0031
1240.00,0.0031
1239.00,0.0031
1238.00,0.0031
1237.00,0.0031
1236.00,0.0031
1235.00,0.0031
1234.00,0.0031
1233.00,0.0031
1232.00,0.0031
1231.00,0.0031
1230.00,0.0031
1229.00,0.0031
1228.00,0.0031
1227.00,0.0031
1226.00,0.0031
1225.00,0.0031
1224.00,0.0031
1223.00,0.0031
1222.00,0.0031
1221.00,0.0031
1220.00,0.0031
1219.00,0.0031
1218.00,0.0031
1217.00,0.0031
1216.00,0.0031
1215.00,0.0031
1214.00,0.0031
1213.00,0.0032
1212.00,0.0032
1211.00,0.0032
1210.00,0.0033
1209.00,0.0033
1208.00,0.0034
1207.00,0.0035
1206.00,0.0035
1205.00,0.0036
1204.00,0.0037
1203.00,0.0037
1202.00,0.0038
1201.00,0.0039
1200.00,0.0040
1199.00,0.0041
1198.00,0.0042
1197.00,0.0042
1196.00,0.0043
1195.00,0.0043
1194.00,0.0043
1193.00,0.0043
1192.00,0.0043
1191.00,0.0044
1190.00,0.0044
1189.00,0.0044
1188.00,0.0045
1187.00,0.0046
1186.00,0.0047
1185.00,0.0050
1184.00,0.0052
1183.00,0.0054
1182.00,0.0056
1181.00,0.0057
1180.00,0.0056
1179.00,0.0054
1178.00,0.0052
1177.00,0.0049
1176.00,0.0046
1175.00,0.0044
1174.00,0.0043
1173.00,0.0041
1172.00,0.0040
1171.00,0.0039
1170.00,0.0039
1169.00,0.0038
1168.00,0.0038
1167.00,0.0038
1166.00,0.0038
1165.00,0.0038
1164.00,0.0039
1163.00,0.0040
1162.00,0.0041
1161.00,0.0042
1160.00,0.0044
1159.00,0.0047
1158.00,0.0049
1157.00,0.0052
1156.00,0.0055
1155.00,0.0056
1154.00,0.0056
1153.00,0.0055
1152.00,0.0052
1151.00,0.0049
1150.00,0.0045
1149.00,0.0042
1148.00,0.0039
1147.00,0.0037
1146.00,0.0035
1145.00,0.0033
1144.00,0.0032
1143.00,0.0031
1142.00,0.0030
1141.00,0.0029
1140.00,0.0029
1139.00,0.0028
1138.00,0.0028
1137.00,0.0028
1136.00,0.0027
1135.00,0.0027
1134.00,0.0027
1133.00,0.0026
1132.00,0.0026
1131.00,0.0026
1130.00,0.0026
1129.00,0.0026
1128.00,0.0026
1127.00,0.0027
1126.00,0.0027
1125.00,0.0027
1124.00,0.0028
1123.00,0.0028
1122.00,0.0029
1121.00,0.0029
1120.00,0.0030
1119.00,0.0031
1118.00,0.0031
1117.00,0.0032
1116.00,0.0033
1115.00,0.0033
1114.00,0.0034
1113.00,0.0034
1112.00,0.0035
1111.00,0.0035
1110.00,0.0036
1109.00,0.0035
1108.00,0.0035
1107.00,0.0034
1106.00,0.0034
1105.00,0.0034
1104.00,0.0034
1103.00,0.0034
1102.00,0.0035
1101.00,0.0035
1100.00,0.0035
1099.00,0.0036
1098.00,0.0036
1097.00,0.0037
1096.00,0.0037
1095.00,0.0038
1094.00,0.0038
1093.00,0.0039
1092.00,0.0039
1091.00,0.0040
1090.00,0.0040
1089.00,0.0040
1088.00,0.0041
1087.00,0.0042
1086.00,0.0043
1085.00,0.0044
1084.00,0.0045
1083.00,0.0046
1082.00,0.0047
1081.00,0.0048
1080.00,0.0050
1079.00,0.0052
1078.00,0.0053
1077.00,0.0055
1076.00,0.0058
1075.00,0.0060
1074.00,0.0063
1073.00,0.0065
1072.00,0.0067
1071.00,0.0069
1070.00,0.0071
1069.00,0.0071
1068.00,0.0072
1067.00,0.0071
1066.00,0.0070
1065.00,0.0068
1064.00,0.0065
1063.00,0.0063
1062.00,0.0060
1061.00,0.0057
1060.00,0.0055
1059.00,0.0054
1058.00,0.0052
1057.00,0.0051
1056.00,0.0049
1055.00,0.0048
1054.00,0.0047
1053.00,0.0046
1052.00,0.0045
1051.00,0.0045
1050.00,0.0044
1049.00,0.0043
1048.00,0.0042
1047.00,0.0042
1046.00,0.0041
1045.00,0.0041
1044.00,0.0041
1043.00,0.0041
1042.00,0.0041
1041.00,0.0042
1040.00,0.0043
1039.00,0.0044
1038.00,0.0047
1037.00,0.0050
1036.00,0.0056
1035.00,0.0063
1034.00,0.0072
1033.00,0.0082
1032.00,0.0093
1031.00,0.0103
1030.00,0.0111
1029.00,0.0117
1028.00,0.0119
1027.00,0.0118
1026.00,0.0113
1025.00,0.0106
1024.00,0.0099
1023.00,0.0091
1022.00,0.0085
1021.00,0.0079
1020.00,0.0075
1019.00,0.0071
1018.00,0.0067
1017.00,0.0064
1016.00,0.0061
1015.00,0.0059
1014.00,0.0057
1013.00,0.0055
1012.00,0.0054
1011.00,0.0052
1010.00,0.0051
1009.00,0.0051
1008.00,0.0050
1007.00,0.0051
1006.00,0.0052
1005.00,0.0053
1004.00,0.0054
1003.00,0.0054
1002.00,0.0053
1001.00,0.0052
1000.00,0.0049
999.00,0.0047
998.00,0.0044
997.00,0.0042
996.00,0.0041
995.00,0.0040
994.00,0.0040
993.00,0.0040
992.00,0.0040
991.00,0.0040
990.00,0.0041
989.00,0.0042
988.00,0.0043
987.00,0.0044
986.00,0.0045
985.00,0.0046
984.00,0.0047
983.00,0.0047
982.00,0.0048
981.00,0.0049
980.00,0.0050
979.00,0.0050
978.00,0.0049
977.00,0.0048
976.00,0.0047
975.00,0.0046
974.00,0.0046
973.00,0.0046
972.00,0.0046
971.00,0.0046
970.00,0.0047
969.00,0.0048
968.00,0.0050
967.00,0.0051
966.00,0.0053
965.00,0.0054
964.00,0.0054
963.00,0.0053
962.00,0.0052
961.00,0.0050
960.00,0.0048
959.00,0.0046
958.00,0.0044
957.00,0.0043
956.00,0.0041
955.00,0.0040
954.00,0.0039
953.00,0.0039
952.00,0.0039
951.00,0.0039
950.00,0.0040
949.00,0.0040
948.00,0.0041
947.00,0.0042
946.00,0.0042
945.00,0.0043
944.00,0.0043
943.00,0.0043
942.00,0.0043
941.00,0.0043
940.00,0.0043
939.00,0.0042
938.00,0.0040
937.00,0.0039
936.00,0.0037
935.00,0.0036
934.00,0.0034
933.00,0.0033
932.00,0.0032
931.00,0.0032
930.00,0.0031
929.00,0.0030
928.00,0.0030
927.00,0.0030
926.00,0.0031
925.00,0.0032
924.00,0.0033
923.00,0.0034
922.00,0.0035
921.00,0.0036
920.00,0.0037
919.00,0.0038
918.00,0.0040
917.00,0.0043
916.00,0.0046
915.00,0.0049
914.00,0.0053
913.00,0.0058
912.00,0.0064
911.00,0.0070
910.00,0.0076
909.00,0.0081
908.00,0.0085
907.00,0.0087
906.00,0.0087
905.00,0.0085
904.00,0.0082
903.00,0.0077
902.00,0.0072
901.00,0.0066
900.00,0.0059
899.00,0.0054
898.00,0.0048
897.00,0.0044
896.00,0.0041
895.00,0.0038
894.00,0.0036
893.00,0.0034
892.00,0.0033
891.00,0.0032
890.00,0.0031
889.00,0.0030
888.00,0.0030
887.00,0.0029
886.00,0.0028
885.00,0.0028
884.00,0.0027
883.00,0.0027
882.00,0.0026
881.00,0.0026
880.00,0.0026
879.00,0.0025
878.00,0.0025
877.00,0.0024
876.00,0.0024
875.00,0.0024
874.00,0.0024
873.00,0.0024
872.00,0.0024
871.00,0.0024
870.00,0.0024
869.00,0.0024
868.00,0.0024
867.00,0.0024
866.00,0.0024
865.00,0.0023
864.00,0.0023
863.00,0.0023
862.00,0.0023
861.00,0.0023
860.00,0.0023
859.00,0.0023
858.00,0.0023
857.00,0.0024
856.00,0.0025
855.00,0.0026
854.00,0.0027
853.00,0.0028
852.00,0.0029
851.00,0.0030
850.00,0.0032
849.00,0.0034
848.00,0.0037
847.00,0.0040
846.00,0.0042
845.00,0.0045
844.00,0.0047
843.00,0.0049
842.00,0.0049
841.00,0.0049
840.00,0.0048
839.00,0.0046
838.00,0.0044
837.00,0.0041
836.00,0.0038
835.00,0.0035
834.00,0.0032
833.00,0.0030
832.00,0.0028
831.00,0.0027
830.00,0.0026
829.00,0.0025
828.00,0.0025
827.00,0.0025
826.00,0.0025
825.00,0.0025
824.00,0.0024
823.00,0.0024
822.00,0.0023
821.00,0.0023
820.00,0.0023
819.00,0.0023
818.00,0.0024
817.00,0.0024
816.00,0.0024
815.00,0.0025
814.00,0.0025
813.00,0.0025
812.00,0.0025
811.00,0.0025
810.00,0.0026
809.00,0.0027
808.00,0.0027
807.00,0.0027
806.00,0.0027
805.00,0.0027
804.00,0.0026
803.00,0.0027
802.00,0.0027
801.00,0.0028
800.00,0.0029
799.00,0.0030
798.00,0.0031
797.00,0.0032
796.00,0.0034
795.00,0.0036
794.00,0.0037
793.00,0.0039
792.00,0.0042
791.00,0.0044
790.00,0.0046
789.00,0.0048
788.00,0.0051
787.00,0.0054
786.00,0.0057
785.00,0.0061
784.00,0.0064
783.00,0.0068
782.00,0.0073
781.00,0.0077
780.00,0.0082
779.00,0.0088
778.00,0.0096
777.00,0.0104
776.00,0.0113
775.00,0.0123
774.00,0.0133
773.00,0.0145
772.00,0.0157
771.00,0.0171
770.00,0.0184
769.00,0.0199
768.00,0.0213
767.00,0.0228
766.00,0.0242
765.00,0.0256
764.00,0.0270
763.00,0.0285
762.00,0.0299
761.00,0.0314
760.00,0.0329
759.00,0.0342
758.00,0.0354
757.00,0.0363
756.00,0.0370
755.00,0.0373
754.00,0.0373
753.00,0.0372
752.00,0.0370
751.00,0.0369
750.00,0.0369
749.00,0.0368
748.00,0.0366
747.00,0.0361
746.00,0.0351
745.00,0.0337
744.00,0.0318
743.00,0.0295
742.00,0.0270
741.00,0.0245
740.00,0.0222
739.00,0.0200
738.00,0.0181
737.00,0.0163
736.00,0.0146
735.00,0.0130
734.00,0.0114
733.00,0.0100
732.00,0.0087
731.00,0.0077
730.00,0.0069
729.00,0.0063
728.00,0.0059
727.00,0.0056
726.00,0.0054
725.00,0.0053
724.00,0.0052
723.00,0.0051
722.00,0.0051
721.00,0.0051
720.00,0.0051
719.00,0.0051
718.00,0.0052
717.00,0.0054
716.00,0.0057
715.00,0.0061
714.00,0.0067
713.00,0.0076
712.00,0.0088
711.00,0.0105
710.00,0.0128
709.00,0.0158
708.00,0.0196
707.00,0.0244
706.00,0.0301
705.00,0.0367
704.00,0.0441
703.00,0.0523
702.00,0.0612
701.00,0.0703
700.00,0.0796
699.00,0.0887
698.00,0.0975
697.00,0.1053
696.00,0.1114
695.00,0.1145
694.00,0.1134
693.00,0.1079
692.00,0.0987
691.00,0.0877
690.00,0.0766
689.00,0.0665
688.00,0.0580
687.00,0.0510
686.00,0.0454
685.00,0.0409
684.00,0.0371
683.00,0.0339
682.00,0.0312
681.00,0.0289
680.00,0.0270
679.00,0.0254
678.00,0.0239
677.00,0.0227
676.00,0.0216
675.00,0.0206
674.00,0.0198
673.00,0.0191
672.00,0.0185
671.00,0.0180
670.00,0.0174
669.00,0.0168
668.00,0.0161
667.00,0.0155
666.00,0.0149
665.00,0.0145
664.00,0.0140
663.00,0.0135
662.00,0.0129
661.00,0.0124
660.00,0.0120
659.00,0.0115
658.00,0.0111
657.00,0.0106
656.00,0.0102
655.00,0.0097
654.00,0.0093
653.00,0.0089
652.00,0.0085
651.00,0.0082
650.00,0.0080
649.00,0.0077
648.00,0.0075
647.00,0.0073
646.00,0.0071
645.00,0.0070
644.00,0.0069
643.00,0.0069
642.00,0.0069
641.00,0.0069
640.00,0.0069
639.00,0.0070
638.00,0.0071
637.00,0.0072
636.00,0.0074
635.00,0.0076
634.00,0.0078
633.00,0.0079
632.00,0.0081
631.00,0.0083
630.00,0.0085
629.00,0.0086
628.00,0.0088
627.00,0.0089
626.00,0.0089
625.00,0.0091
624.00,0.0092
623.00,0.0094
622.00,0.0096
621.00,0.0096
620.00,0.0095
619.00,0.0093
618.00,0.0091
617.00,0.0088
616.00,0.0087
615.00,0.0086
614.00,0.0085
613.00,0.0084
612.00,0.0082
611.00,0.0081
610.00,0.0079
609.00,0.0078
608.00,0.0077
607.00,0.0076
606.00,0.0076
605.00,0.0077
604.00,0.0078
603.00,0.0078
602.00,0.0079
601.00,0.0079
600.00,0.0080
599.00,0.0082
598.00,0.0083
597.00,0.0083
596.00,0.0084
595.00,0.0085
594.00,0.0085
593.00,0.0084
592.00,0.0085
591.00,0.0086
590.00,0.0088
589.00,0.0090
588.00,0.0091
587.00,0.0093
586.00,0.0094
585.00,0.0094
584.00,0.0096
583.00,0.0099
582.00,0.0102
581.00,0.0105
580.00,0.0109
579.00,0.0113
578.00,0.0118
577.00,0.0124
576.00,0.0129
575.00,0.0135
574.00,0.0141
573.00,0.0147
572.00,0.0153
571.00,0.0159
570.00,0.0163
569.00,0.0167
568.00,0.0171
567.00,0.0176
566.00,0.0181
565.00,0.0187
564.00,0.0194
563.00,0.0199
562.00,0.0204
561.00,0.0209
560.00,0.0214
559.00,0.0220
558.00,0.0226
557.00,0.0233
556.00,0.0239
555.00,0.0246
554.00,0.0252
553.00,0.0259
552.00,0.0266
551.00,0.0273
550.00,0.0281
549.00,0.0290
548.00,0.0302
547.00,0.0315
546.00,0.0327
545.00,0.0340
544.00,0.0354
543.00,0.0369
542.00,0.0383
541.00,0.0396
540.00,0.0408
539.00,0.0417
538.00,0.0421
537.00,0.0421
536.00,0.0415
535.00,0.0404
534.00,0.0389
533.00,0.0371
532.00,0.0352
531.00,0.0331
530.00,0.0310
529.00,0.0289
528.00,0.0270
527.00,0.0253
526.00,0.0237
525.00,0.0223
524.00,0.0211
523.00,0.0199
522.00,0.0189
521.00,0.0181
520.00,0.0175
519.00,0.0169
518.00,0.0163
517.00,0.0156
516.00,0.0151
515.00,0.0147
514.00,0.0143
513.00,0.0139
512.00,0.0136
511.00,0.0132
510.00,0.0128
509.00,0.0123
508.00,0.0120
507.00,0.0119
506.00,0.0118
505.00,0.0117
504.00,0.0115
503.00,0.0112
502.00,0.0108
501.00,0.0105
500.00,0.0104
499.00,0.0102
498.00,0.0100
497.00,0.0097
496.00,0.0094
495.00,0.0092
494.00,0.0090
493.00,0.0086
492.00,0.0084
491.00,0.0083
490.00,0.0083
489.00,0.0083
488.00,0.0083
487.00,0.0083
486.00,0.0081
485.00,0.0079
484.00,0.0077
483.00,0.0077
482.00,0.0076
481.00,0.0077
480.00,0.0077
479.00,0.0076
478.00,0.0074
477.00,0.0072
476.00,0.0072
475.00,0.0072
474.00,0.0073
473.00,0.0073
472.00,0.0073
471.00,0.0072
470.00,0.0070
469.00,0.0068
468.00,0.0068
467.00,0.0069
466.00,0.0071
465.00,0.0072
464.00,0.0071
463.00,0.0069
462.00,0.0067
461.00,0.0066
460.00,0.0065
459.00,0.0066
458.00,0.0067
457.00,0.0067
456.00,0.0067
455.00,0.0065
454.00,0.0064
453.00,0.0065
452.00,0.0067
451.00,0.0068
450.00,0.0067
449.00,0.0064
448.00,0.0063
447.00,0.0065
446.00,0.0067
445.00,0.0068
444.00,0.0067
443.00,0.0065
442.00,0.0062
441.00,0.0062
440.00,0.0064
439.00,0.0067
438.00,0.0071
437.00,0.0072
436.00,0.0070
435.00,0.0065
434.00,0.0060
433.00,0.0055
432.00,0.0053
431.00,0.0051
430.00,0.0051
429.00,0.0054
428.00,0.0059
427.00,0.0064
426.00,0.0064
425.00,0.0060
424.00,0.0059
423.00,0.0060
422.00,0.0062
421.00,0.0064
420.00,0.0063
419.00,0.0061
418.00,0.0057
417.00,0.0056
416.00,0.0055
415.00,0.0054
414.00,0.0052
413.00,0.0049
412.00,0.0047
411.00,0.0049
410.00,0.0054
409.00,0.0063
408.00,0.0074
407.00,0.0083
406.00,0.0086
405.00,0.0085
404.00,0.0083
403.00,0.0080
402.00,0.0073
401.00,0.0062
400.00,0.0045
