Created as New Dataset,Sample 838 By YargerLab Date Saturday, April 18 2026
cm-1,A
4000.00,0.1092
3999.00,0.1095
3998.00,0.1097
3997.00,0.1100
3996.00,0.1104
3995.00,0.1109
3994.00,0.1117
3993.00,0.1125
3992.00,0.1134
3991.00,0.1143
3990.00,0.1149
3989.00,0.1154
3988.00,0.1156
3987.00,0.1155
3986.00,0.1153
3985.00,0.1148
3984.00,0.1142
3983.00,0.1136
3982.00,0.1131
3981.00,0.1126
3980.00,0.1123
3979.00,0.1120
3978.00,0.1118
3977.00,0.1115
3976.00,0.1113
3975.00,0.1110
3974.00,0.1106
3973.00,0.1103
3972.00,0.1100
3971.00,0.1098
3970.00,0.1096
3969.00,0.1095
3968.00,0.1094
3967.00,0.1094
3966.00,0.1094
3965.00,0.1094
3964.00,0.1094
3963.00,0.1095
3962.00,0.1097
3961.00,0.1100
3960.00,0.1104
3959.00,0.1107
3958.00,0.1110
3957.00,0.1111
3956.00,0.1110
3955.00,0.1108
3954.00,0.1106
3953.00,0.1104
3952.00,0.1102
3951.00,0.1100
3950.00,0.1099
3949.00,0.1098
3948.00,0.1096
3947.00,0.1095
3946.00,0.1094
3945.00,0.1095
3944.00,0.1096
3943.00,0.1098
3942.00,0.1100
3941.00,0.1101
3940.00,0.1101
3939.00,0.1101
3938.00,0.1099
3937.00,0.1096
3936.00,0.1094
3935.00,0.1091
3934.00,0.1089
3933.00,0.1088
3932.00,0.1087
3931.00,0.1085
3930.00,0.1083
3929.00,0.1080
3928.00,0.1079
3927.00,0.1077
3926.00,0.1076
3925.00,0.1074
3924.00,0.1073
3923.00,0.1071
3922.00,0.1070
3921.00,0.1069
3920.00,0.1069
3919.00,0.1069
3918.00,0.1069
3917.00,0.1069
3916.00,0.1069
3915.00,0.1069
3914.00,0.1069
3913.00,0.1069
3912.00,0.1070
3911.00,0.1071
3910.00,0.1071
3909.00,0.1071
3908.00,0.1071
3907.00,0.1070
3906.00,0.1070
3905.00,0.1070
3904.00,0.1071
3903.00,0.1072
3902.00,0.1074
3901.00,0.1077
3900.00,0.1080
3899.00,0.1082
3898.00,0.1082
3897.00,0.1082
3896.00,0.1082
3895.00,0.1082
3894.00,0.1083
3893.00,0.1084
3892.00,0.1084
3891.00,0.1083
3890.00,0.1080
3889.00,0.1078
3888.00,0.1077
3887.00,0.1077
3886.00,0.1077
3885.00,0.1076
3884.00,0.1074
3883.00,0.1075
3882.00,0.1078
3881.00,0.1080
3880.00,0.1080
3879.00,0.1078
3878.00,0.1076
3877.00,0.1075
3876.00,0.1075
3875.00,0.1073
3874.00,0.1071
3873.00,0.1068
3872.00,0.1067
3871.00,0.1068
3870.00,0.1068
3869.00,0.1066
3868.00,0.1065
3867.00,0.1066
3866.00,0.1068
3865.00,0.1070
3864.00,0.1071
3863.00,0.1071
3862.00,0.1072
3861.00,0.1074
3860.00,0.1076
3859.00,0.1077
3858.00,0.1078
3857.00,0.1079
3856.00,0.1082
3855.00,0.1089
3854.00,0.1099
3853.00,0.1106
3852.00,0.1110
3851.00,0.1113
3850.00,0.1118
3849.00,0.1122
3848.00,0.1123
3847.00,0.1121
3846.00,0.1118
3845.00,0.1113
3844.00,0.1108
3843.00,0.1102
3842.00,0.1095
3841.00,0.1090
3840.00,0.1086
3839.00,0.1083
3838.00,0.1081
3837.00,0.1079
3836.00,0.1078
3835.00,0.1079
3834.00,0.1082
3833.00,0.1085
3832.00,0.1086
3831.00,0.1086
3830.00,0.1086
3829.00,0.1085
3828.00,0.1085
3827.00,0.1084
3826.00,0.1081
3825.00,0.1077
3824.00,0.1075
3823.00,0.1075
3822.00,0.1075
3821.00,0.1074
3820.00,0.1071
3819.00,0.1069
3818.00,0.1070
3817.00,0.1073
3816.00,0.1074
3815.00,0.1073
3814.00,0.1073
3813.00,0.1074
3812.00,0.1076
3811.00,0.1077
3810.00,0.1077
3809.00,0.1079
3808.00,0.1083
3807.00,0.1087
3806.00,0.1089
3805.00,0.1091
3804.00,0.1093
3803.00,0.1096
3802.00,0.1097
3801.00,0.1095
3800.00,0.1092
3799.00,0.1091
3798.00,0.1092
3797.00,0.1092
3796.00,0.1091
3795.00,0.1088
3794.00,0.1085
3793.00,0.1083
3792.00,0.1082
3791.00,0.1080
3790.00,0.1078
3789.00,0.1077
3788.00,0.1076
3787.00,0.1076
3786.00,0.1076
3785.00,0.1076
3784.00,0.1076
3783.00,0.1075
3782.00,0.1074
3781.00,0.1074
3780.00,0.1074
3779.00,0.1073
3778.00,0.1072
3777.00,0.1071
3776.00,0.1070
3775.00,0.1070
3774.00,0.1068
3773.00,0.1067
3772.00,0.1066
3771.00,0.1065
3770.00,0.1064
3769.00,0.1063
3768.00,0.1061
3767.00,0.1062
3766.00,0.1062
3765.00,0.1061
3764.00,0.1059
3763.00,0.1058
3762.00,0.1057
3761.00,0.1057
3760.00,0.1057
3759.00,0.1056
3758.00,0.1055
3757.00,0.1053
3756.00,0.1051
3755.00,0.1049
3754.00,0.1046
3753.00,0.1044
3752.00,0.1042
3751.00,0.1042
3750.00,0.1042
3749.00,0.1040
3748.00,0.1039
3747.00,0.1040
3746.00,0.1043
3745.00,0.1046
3744.00,0.1046
3743.00,0.1045
3742.00,0.1046
3741.00,0.1049
3740.00,0.1050
3739.00,0.1050
3738.00,0.1049
3737.00,0.1048
3736.00,0.1048
3735.00,0.1048
3734.00,0.1048
3733.00,0.1049
3732.00,0.1050
3731.00,0.1051
3730.00,0.1052
3729.00,0.1053
3728.00,0.1056
3727.00,0.1057
3726.00,0.1057
3725.00,0.1058
3724.00,0.1059
3723.00,0.1060
3722.00,0.1060
3721.00,0.1059
3720.00,0.1058
3719.00,0.1057
3718.00,0.1056
3717.00,0.1055
3716.00,0.1053
3715.00,0.1052
3714.00,0.1051
3713.00,0.1052
3712.00,0.1053
3711.00,0.1053
3710.00,0.1053
3709.00,0.1053
3708.00,0.1053
3707.00,0.1053
3706.00,0.1052
3705.00,0.1052
3704.00,0.1052
3703.00,0.1052
3702.00,0.1052
3701.00,0.1051
3700.00,0.1050
3699.00,0.1050
3698.00,0.1050
3697.00,0.1050
3696.00,0.1050
3695.00,0.1050
3694.00,0.1048
3693.00,0.1047
3692.00,0.1045
3691.00,0.1043
3690.00,0.1043
3689.00,0.1044
3688.00,0.1045
3687.00,0.1046
3686.00,0.1048
3685.00,0.1050
3684.00,0.1051
3683.00,0.1051
3682.00,0.1050
3681.00,0.1049
3680.00,0.1047
3679.00,0.1044
3678.00,0.1044
3677.00,0.1046
3676.00,0.1049
3675.00,0.1050
3674.00,0.1050
3673.00,0.1050
3672.00,0.1053
3671.00,0.1056
3670.00,0.1056
3669.00,0.1055
3668.00,0.1054
3667.00,0.1053
3666.00,0.1053
3665.00,0.1053
3664.00,0.1052
3663.00,0.1052
3662.00,0.1052
3661.00,0.1052
3660.00,0.1052
3659.00,0.1053
3658.00,0.1056
3657.00,0.1059
3656.00,0.1062
3655.00,0.1062
3654.00,0.1062
3653.00,0.1062
3652.00,0.1061
3651.00,0.1059
3650.00,0.1057
3649.00,0.1056
3648.00,0.1054
3647.00,0.1052
3646.00,0.1052
3645.00,0.1052
3644.00,0.1053
3643.00,0.1053
3642.00,0.1053
3641.00,0.1052
3640.00,0.1050
3639.00,0.1049
3638.00,0.1048
3637.00,0.1047
3636.00,0.1046
3635.00,0.1045
3634.00,0.1043
3633.00,0.1041
3632.00,0.1040
3631.00,0.1040
3630.00,0.1044
3629.00,0.1048
3628.00,0.1052
3627.00,0.1054
3626.00,0.1057
3625.00,0.1059
3624.00,0.1058
3623.00,0.1056
3622.00,0.1053
3621.00,0.1051
3620.00,0.1049
3619.00,0.1047
3618.00,0.1045
3617.00,0.1044
3616.00,0.1043
3615.00,0.1044
3614.00,0.1044
3613.00,0.1044
3612.00,0.1043
3611.00,0.1043
3610.00,0.1044
3609.00,0.1045
3608.00,0.1045
3607.00,0.1044
3606.00,0.1044
3605.00,0.1044
3604.00,0.1044
3603.00,0.1044
3602.00,0.1044
3601.00,0.1045
3600.00,0.1045
3599.00,0.1046
3598.00,0.1047
3597.00,0.1048
3596.00,0.1049
3595.00,0.1049
3594.00,0.1049
3593.00,0.1048
3592.00,0.1047
3591.00,0.1046
3590.00,0.1045
3589.00,0.1046
3588.00,0.1046
3587.00,0.1046
3586.00,0.1046
3585.00,0.1047
3584.00,0.1047
3583.00,0.1049
3582.00,0.1050
3581.00,0.1051
3580.00,0.1053
3579.00,0.1055
3578.00,0.1057
3577.00,0.1059
3576.00,0.1061
3575.00,0.1063
3574.00,0.1063
3573.00,0.1063
3572.00,0.1062
3571.00,0.1060
3570.00,0.1060
3569.00,0.1060
3568.00,0.1062
3567.00,0.1063
3566.00,0.1065
3565.00,0.1066
3564.00,0.1067
3563.00,0.1068
3562.00,0.1069
3561.00,0.1070
3560.00,0.1070
3559.00,0.1068
3558.00,0.1066
3557.00,0.1064
3556.00,0.1062
3555.00,0.1060
3554.00,0.1059
3553.00,0.1058
3552.00,0.1057
3551.00,0.1056
3550.00,0.1055
3549.00,0.1054
3548.00,0.1054
3547.00,0.1053
3546.00,0.1053
3545.00,0.1053
3544.00,0.1053
3543.00,0.1053
3542.00,0.1054
3541.00,0.1054
3540.00,0.1055
3539.00,0.1055
3538.00,0.1054
3537.00,0.1054
3536.00,0.1054
3535.00,0.1054
3534.00,0.1054
3533.00,0.1054
3532.00,0.1054
3531.00,0.1054
3530.00,0.1054
3529.00,0.1053
3528.00,0.1052
3527.00,0.1051
3526.00,0.1050
3525.00,0.1049
3524.00,0.1049
3523.00,0.1049
3522.00,0.1049
3521.00,0.1049
3520.00,0.1049
3519.00,0.1050
3518.00,0.1050
3517.00,0.1051
3516.00,0.1051
3515.00,0.1052
3514.00,0.1052
3513.00,0.1051
3512.00,0.1051
3511.00,0.1050
3510.00,0.1049
3509.00,0.1048
3508.00,0.1047
3507.00,0.1046
3506.00,0.1045
3505.00,0.1045
3504.00,0.1044
3503.00,0.1044
3502.00,0.1044
3501.00,0.1043
3500.00,0.1043
3499.00,0.1042
3498.00,0.1042
3497.00,0.1042
3496.00,0.1042
3495.00,0.1042
3494.00,0.1042
3493.00,0.1042
3492.00,0.1042
3491.00,0.1042
3490.00,0.1042
3489.00,0.1042
3488.00,0.1042
3487.00,0.1042
3486.00,0.1042
3485.00,0.1042
3484.00,0.1042
3483.00,0.1042
3482.00,0.1042
3481.00,0.1042
3480.00,0.1042
3479.00,0.1043
3478.00,0.1043
3477.00,0.1044
3476.00,0.1044
3475.00,0.1045
3474.00,0.1045
3473.00,0.1045
3472.00,0.1045
3471.00,0.1044
3470.00,0.1044
3469.00,0.1044
3468.00,0.1043
3467.00,0.1043
3466.00,0.1043
3465.00,0.1043
3464.00,0.1043
3463.00,0.1043
3462.00,0.1043
3461.00,0.1043
3460.00,0.1043
3459.00,0.1043
3458.00,0.1044
3457.00,0.1044
3456.00,0.1044
3455.00,0.1043
3454.00,0.1043
3453.00,0.1043
3452.00,0.1043
3451.00,0.1042
3450.00,0.1042
3449.00,0.1042
3448.00,0.1042
3447.00,0.1042
3446.00,0.1042
3445.00,0.1042
3444.00,0.1042
3443.00,0.1042
3442.00,0.1041
3441.00,0.1041
3440.00,0.1040
3439.00,0.1040
3438.00,0.1040
3437.00,0.1040
3436.00,0.1040
3435.00,0.1040
3434.00,0.1040
3433.00,0.1039
3432.00,0.1039
3431.00,0.1039
3430.00,0.1039
3429.00,0.1039
3428.00,0.1039
3427.00,0.1039
3426.00,0.1039
3425.00,0.1040
3424.00,0.1041
3423.00,0.1042
3422.00,0.1043
3421.00,0.1045
3420.00,0.1046
3419.00,0.1047
3418.00,0.1048
3417.00,0.1048
3416.00,0.1047
3415.00,0.1047
3414.00,0.1046
3413.00,0.1046
3412.00,0.1045
3411.00,0.1044
3410.00,0.1043
3409.00,0.1043
3408.00,0.1042
3407.00,0.1042
3406.00,0.1041
3405.00,0.1041
3404.00,0.1041
3403.00,0.1041
3402.00,0.1041
3401.00,0.1041
3400.00,0.1041
3399.00,0.1041
3398.00,0.1041
3397.00,0.1041
3396.00,0.1041
3395.00,0.1041
3394.00,0.1041
3393.00,0.1041
3392.00,0.1041
3391.00,0.1041
3390.00,0.1040
3389.00,0.1040
3388.00,0.1040
3387.00,0.1039
3386.00,0.1039
3385.00,0.1038
3384.00,0.1038
3383.00,0.1037
3382.00,0.1037
3381.00,0.1037
3380.00,0.1037
3379.00,0.1038
3378.00,0.1038
3377.00,0.1038
3376.00,0.1038
3375.00,0.1038
3374.00,0.1038
3373.00,0.1038
3372.00,0.1039
3371.00,0.1039
3370.00,0.1040
3369.00,0.1040
3368.00,0.1040
3367.00,0.1041
3366.00,0.1041
3365.00,0.1042
3364.00,0.1042
3363.00,0.1042
3362.00,0.1042
3361.00,0.1042
3360.00,0.1042
3359.00,0.1041
3358.00,0.1041
3357.00,0.1040
3356.00,0.1040
3355.00,0.1040
3354.00,0.1040
3353.00,0.1040
3352.00,0.1039
3351.00,0.1039
3350.00,0.1039
3349.00,0.1039
3348.00,0.1039
3347.00,0.1038
3346.00,0.1038
3345.00,0.1038
3344.00,0.1038
3343.00,0.1038
3342.00,0.1038
3341.00,0.1038
3340.00,0.1037
3339.00,0.1037
3338.00,0.1037
3337.00,0.1037
3336.00,0.1037
3335.00,0.1038
3334.00,0.1038
3333.00,0.1038
3332.00,0.1038
3331.00,0.1038
3330.00,0.1038
3329.00,0.1038
3328.00,0.1038
3327.00,0.1038
3326.00,0.1038
3325.00,0.1038
3324.00,0.1038
3323.00,0.1038
3322.00,0.1038
3321.00,0.1038
3320.00,0.1037
3319.00,0.1037
3318.00,0.1037
3317.00,0.1037
3316.00,0.1037
3315.00,0.1037
3314.00,0.1037
3313.00,0.1037
3312.00,0.1037
3311.00,0.1036
3310.00,0.1037
3309.00,0.1037
3308.00,0.1037
3307.00,0.1037
3306.00,0.1037
3305.00,0.1037
3304.00,0.1037
3303.00,0.1037
3302.00,0.1037
3301.00,0.1037
3300.00,0.1037
3299.00,0.1037
3298.00,0.1037
3297.00,0.1037
3296.00,0.1038
3295.00,0.1038
3294.00,0.1038
3293.00,0.1038
3292.00,0.1038
3291.00,0.1038
3290.00,0.1038
3289.00,0.1037
3288.00,0.1037
3287.00,0.1037
3286.00,0.1037
3285.00,0.1037
3284.00,0.1037
3283.00,0.1036
3282.00,0.1036
3281.00,0.1036
3280.00,0.1036
3279.00,0.1035
3278.00,0.1036
3277.00,0.1036
3276.00,0.1036
3275.00,0.1036
3274.00,0.1036
3273.00,0.1036
3272.00,0.1036
3271.00,0.1036
3270.00,0.1036
3269.00,0.1037
3268.00,0.1037
3267.00,0.1037
3266.00,0.1038
3265.00,0.1038
3264.00,0.1038
3263.00,0.1038
3262.00,0.1037
3261.00,0.1036
3260.00,0.1035
3259.00,0.1035
3258.00,0.1034
3257.00,0.1033
3256.00,0.1033
3255.00,0.1033
3254.00,0.1032
3253.00,0.1032
3252.00,0.1032
3251.00,0.1032
3250.00,0.1032
3249.00,0.1032
3248.00,0.1033
3247.00,0.1033
3246.00,0.1033
3245.00,0.1033
3244.00,0.1033
3243.00,0.1032
3242.00,0.1032
3241.00,0.1032
3240.00,0.1031
3239.00,0.1031
3238.00,0.1031
3237.00,0.1030
3236.00,0.1030
3235.00,0.1030
3234.00,0.1030
3233.00,0.1030
3232.00,0.1029
3231.00,0.1029
3230.00,0.1029
3229.00,0.1029
3228.00,0.1030
3227.00,0.1030
3226.00,0.1031
3225.00,0.1033
3224.00,0.1035
3223.00,0.1039
3222.00,0.1045
3221.00,0.1052
3220.00,0.1060
3219.00,0.1065
3218.00,0.1068
3217.00,0.1067
3216.00,0.1064
3215.00,0.1059
3214.00,0.1054
3213.00,0.1050
3212.00,0.1046
3211.00,0.1043
3210.00,0.1041
3209.00,0.1039
3208.00,0.1037
3207.00,0.1035
3206.00,0.1034
3205.00,0.1033
3204.00,0.1032
3203.00,0.1031
3202.00,0.1030
3201.00,0.1030
3200.00,0.1029
3199.00,0.1029
3198.00,0.1029
3197.00,0.1029
3196.00,0.1029
3195.00,0.1029
3194.00,0.1029
3193.00,0.1029
3192.00,0.1030
3191.00,0.1031
3190.00,0.1032
3189.00,0.1034
3188.00,0.1036
3187.00,0.1038
3186.00,0.1039
3185.00,0.1039
3184.00,0.1038
3183.00,0.1036
3182.00,0.1035
3181.00,0.1034
3180.00,0.1033
3179.00,0.1033
3178.00,0.1032
3177.00,0.1032
3176.00,0.1033
3175.00,0.1033
3174.00,0.1034
3173.00,0.1036
3172.00,0.1039
3171.00,0.1042
3170.00,0.1044
3169.00,0.1045
3168.00,0.1045
3167.00,0.1043
3166.00,0.1040
3165.00,0.1037
3164.00,0.1035
3163.00,0.1033
3162.00,0.1032
3161.00,0.1031
3160.00,0.1031
3159.00,0.1030
3158.00,0.1029
3157.00,0.1029
3156.00,0.1028
3155.00,0.1028
3154.00,0.1027
3153.00,0.1027
3152.00,0.1026
3151.00,0.1026
3150.00,0.1025
3149.00,0.1025
3148.00,0.1026
3147.00,0.1026
3146.00,0.1026
3145.00,0.1026
3144.00,0.1025
3143.00,0.1025
3142.00,0.1024
3141.00,0.1024
3140.00,0.1024
3139.00,0.1024
3138.00,0.1024
3137.00,0.1024
3136.00,0.1024
3135.00,0.1024
3134.00,0.1024
3133.00,0.1023
3132.00,0.1023
3131.00,0.1023
3130.00,0.1023
3129.00,0.1023
3128.00,0.1023
3127.00,0.1022
3126.00,0.1021
3125.00,0.1019
3124.00,0.1017
3123.00,0.1015
3122.00,0.1013
3121.00,0.1012
3120.00,0.1012
3119.00,0.1011
3118.00,0.1011
3117.00,0.1010
3116.00,0.1010
3115.00,0.1010
3114.00,0.1010
3113.00,0.1009
3112.00,0.1009
3111.00,0.1008
3110.00,0.1008
3109.00,0.1008
3108.00,0.1007
3107.00,0.1008
3106.00,0.1009
3105.00,0.1010
3104.00,0.1014
3103.00,0.1019
3102.00,0.1026
3101.00,0.1037
3100.00,0.1051
3099.00,0.1069
3098.00,0.1088
3097.00,0.1103
3096.00,0.1111
3095.00,0.1112
3094.00,0.1109
3093.00,0.1107
3092.00,0.1111
3091.00,0.1124
3090.00,0.1148
3089.00,0.1177
3088.00,0.1205
3087.00,0.1226
3086.00,0.1235
3085.00,0.1236
3084.00,0.1231
3083.00,0.1222
3082.00,0.1208
3081.00,0.1190
3080.00,0.1170
3079.00,0.1148
3078.00,0.1128
3077.00,0.1110
3076.00,0.1095
3075.00,0.1083
3074.00,0.1074
3073.00,0.1072
3072.00,0.1079
3071.00,0.1098
3070.00,0.1126
3069.00,0.1160
3068.00,0.1196
3067.00,0.1243
3066.00,0.1313
3065.00,0.1413
3064.00,0.1531
3063.00,0.1639
3062.00,0.1709
3061.00,0.1732
3060.00,0.1722
3059.00,0.1703
3058.00,0.1692
3057.00,0.1697
3056.00,0.1718
3055.00,0.1748
3054.00,0.1786
3053.00,0.1834
3052.00,0.1892
3051.00,0.1952
3050.00,0.1998
3049.00,0.2006
3048.00,0.1966
3047.00,0.1885
3046.00,0.1786
3045.00,0.1692
3044.00,0.1617
3043.00,0.1563
3042.00,0.1527
3041.00,0.1499
3040.00,0.1471
3039.00,0.1437
3038.00,0.1400
3037.00,0.1367
3036.00,0.1347
3035.00,0.1350
3034.00,0.1376
3033.00,0.1422
3032.00,0.1478
3031.00,0.1530
3030.00,0.1567
3029.00,0.1584
3028.00,0.1582
3027.00,0.1564
3026.00,0.1536
3025.00,0.1504
3024.00,0.1473
3023.00,0.1445
3022.00,0.1421
3021.00,0.1398
3020.00,0.1375
3019.00,0.1352
3018.00,0.1329
3017.00,0.1308
3016.00,0.1291
3015.00,0.1277
3014.00,0.1267
3013.00,0.1261
3012.00,0.1257
3011.00,0.1256
3010.00,0.1260
3009.00,0.1271
3008.00,0.1292
3007.00,0.1323
3006.00,0.1363
3005.00,0.1404
3004.00,0.1435
3003.00,0.1449
3002.00,0.1442
3001.00,0.1421
3000.00,0.1392
2999.00,0.1363
2998.00,0.1337
2997.00,0.1315
2996.00,0.1297
2995.00,0.1282
2994.00,0.1268
2993.00,0.1256
2992.00,0.1245
2991.00,0.1235
2990.00,0.1226
2989.00,0.1218
2988.00,0.1211
2987.00,0.1207
2986.00,0.1203
2985.00,0.1200
2984.00,0.1198
2983.00,0.1196
2982.00,0.1193
2981.00,0.1191
2980.00,0.1188
2979.00,0.1185
2978.00,0.1182
2977.00,0.1179
2976.00,0.1176
2975.00,0.1173
2974.00,0.1172
2973.00,0.1173
2972.00,0.1176
2971.00,0.1181
2970.00,0.1188
2969.00,0.1195
2968.00,0.1203
2967.00,0.1212
2966.00,0.1219
2965.00,0.1225
2964.00,0.1228
2963.00,0.1227
2962.00,0.1223
2961.00,0.1217
2960.00,0.1211
2959.00,0.1205
2958.00,0.1201
2957.00,0.1199
2956.00,0.1199
2955.00,0.1200
2954.00,0.1200
2953.00,0.1200
2952.00,0.1198
2951.00,0.1196
2950.00,0.1196
2949.00,0.1200
2948.00,0.1205
2947.00,0.1210
2946.00,0.1211
2945.00,0.1207
2944.00,0.1199
2943.00,0.1190
2942.00,0.1181
2941.00,0.1175
2940.00,0.1170
2939.00,0.1169
2938.00,0.1170
2937.00,0.1173
2936.00,0.1177
2935.00,0.1179
2934.00,0.1180
2933.00,0.1179
2932.00,0.1176
2931.00,0.1173
2930.00,0.1170
2929.00,0.1168
2928.00,0.1167
2927.00,0.1168
2926.00,0.1169
2925.00,0.1168
2924.00,0.1166
2923.00,0.1161
2922.00,0.1155
2921.00,0.1149
2920.00,0.1142
2919.00,0.1137
2918.00,0.1133
2917.00,0.1129
2916.00,0.1126
2915.00,0.1123
2914.00,0.1120
2913.00,0.1118
2912.00,0.1115
2911.00,0.1113
2910.00,0.1112
2909.00,0.1110
2908.00,0.1108
2907.00,0.1106
2906.00,0.1105
2905.00,0.1105
2904.00,0.1105
2903.00,0.1105
2902.00,0.1106
2901.00,0.1107
2900.00,0.1109
2899.00,0.1109
2898.00,0.1110
2897.00,0.1109
2896.00,0.1108
2895.00,0.1106
2894.00,0.1104
2893.00,0.1103
2892.00,0.1102
2891.00,0.1102
2890.00,0.1101
2889.00,0.1101
2888.00,0.1102
2887.00,0.1103
2886.00,0.1104
2885.00,0.1105
2884.00,0.1105
2883.00,0.1105
2882.00,0.1104
2881.00,0.1102
2880.00,0.1100
2879.00,0.1099
2878.00,0.1097
2877.00,0.1096
2876.00,0.1095
2875.00,0.1094
2874.00,0.1094
2873.00,0.1093
2872.00,0.1093
2871.00,0.1092
2870.00,0.1092
2869.00,0.1091
2868.00,0.1091
2867.00,0.1090
2866.00,0.1089
2865.00,0.1089
2864.00,0.1088
2863.00,0.1088
2862.00,0.1087
2861.00,0.1087
2860.00,0.1087
2859.00,0.1088
2858.00,0.1089
2857.00,0.1090
2856.00,0.1092
2855.00,0.1093
2854.00,0.1095
2853.00,0.1098
2852.00,0.1101
2851.00,0.1104
2850.00,0.1107
2849.00,0.1110
2848.00,0.1112
2847.00,0.1114
2846.00,0.1114
2845.00,0.1113
2844.00,0.1111
2843.00,0.1109
2842.00,0.1106
2841.00,0.1103
2840.00,0.1102
2839.00,0.1102
2838.00,0.1104
2837.00,0.1108
2836.00,0.1112
2835.00,0.1115
2834.00,0.1115
2833.00,0.1112
2832.00,0.1108
2831.00,0.1104
2830.00,0.1099
2829.00,0.1096
2828.00,0.1093
2827.00,0.1090
2826.00,0.1089
2825.00,0.1087
2824.00,0.1086
2823.00,0.1086
2822.00,0.1085
2821.00,0.1085
2820.00,0.1085
2819.00,0.1084
2818.00,0.1084
2817.00,0.1083
2816.00,0.1082
2815.00,0.1081
2814.00,0.1081
2813.00,0.1080
2812.00,0.1080
2811.00,0.1080
2810.00,0.1081
2809.00,0.1081
2808.00,0.1081
2807.00,0.1082
2806.00,0.1082
2805.00,0.1081
2804.00,0.1081
2803.00,0.1080
2802.00,0.1079
2801.00,0.1078
2800.00,0.1077
2799.00,0.1076
2798.00,0.1075
2797.00,0.1074
2796.00,0.1074
2795.00,0.1074
2794.00,0.1073
2793.00,0.1074
2792.00,0.1074
2791.00,0.1075
2790.00,0.1076
2789.00,0.1078
2788.00,0.1079
2787.00,0.1080
2786.00,0.1081
2785.00,0.1080
2784.00,0.1079
2783.00,0.1078
2782.00,0.1077
2781.00,0.1076
2780.00,0.1075
2779.00,0.1073
2778.00,0.1071
2777.00,0.1070
2776.00,0.1068
2775.00,0.1067
2774.00,0.1066
2773.00,0.1066
2772.00,0.1066
2771.00,0.1066
2770.00,0.1066
2769.00,0.1066
2768.00,0.1066
2767.00,0.1067
2766.00,0.1067
2765.00,0.1067
2764.00,0.1067
2763.00,0.1067
2762.00,0.1067
2761.00,0.1067
2760.00,0.1068
2759.00,0.1069
2758.00,0.1070
2757.00,0.1072
2756.00,0.1074
2755.00,0.1075
2754.00,0.1076
2753.00,0.1076
2752.00,0.1076
2751.00,0.1075
2750.00,0.1075
2749.00,0.1074
2748.00,0.1074
2747.00,0.1073
2746.00,0.1073
2745.00,0.1074
2744.00,0.1076
2743.00,0.1078
2742.00,0.1081
2741.00,0.1082
2740.00,0.1083
2739.00,0.1082
2738.00,0.1081
2737.00,0.1081
2736.00,0.1081
2735.00,0.1082
2734.00,0.1083
2733.00,0.1084
2732.00,0.1085
2731.00,0.1085
2730.00,0.1085
2729.00,0.1084
2728.00,0.1082
2727.00,0.1080
2726.00,0.1077
2725.00,0.1075
2724.00,0.1074
2723.00,0.1072
2722.00,0.1072
2721.00,0.1072
2720.00,0.1073
2719.00,0.1074
2718.00,0.1076
2717.00,0.1078
2716.00,0.1080
2715.00,0.1081
2714.00,0.1081
2713.00,0.1079
2712.00,0.1078
2711.00,0.1076
2710.00,0.1074
2709.00,0.1073
2708.00,0.1072
2707.00,0.1071
2706.00,0.1071
2705.00,0.1070
2704.00,0.1069
2703.00,0.1068
2702.00,0.1067
2701.00,0.1066
2700.00,0.1066
2699.00,0.1065
2698.00,0.1064
2697.00,0.1064
2696.00,0.1063
2695.00,0.1063
2694.00,0.1063
2693.00,0.1062
2692.00,0.1062
2691.00,0.1062
2690.00,0.1061
2689.00,0.1061
2688.00,0.1061
2687.00,0.1061
2686.00,0.1061
2685.00,0.1061
2684.00,0.1061
2683.00,0.1061
2682.00,0.1061
2681.00,0.1061
2680.00,0.1061
2679.00,0.1061
2678.00,0.1062
2677.00,0.1063
2676.00,0.1064
2675.00,0.1065
2674.00,0.1066
2673.00,0.1067
2672.00,0.1068
2671.00,0.1069
2670.00,0.1069
2669.00,0.1070
2668.00,0.1070
2667.00,0.1070
2666.00,0.1069
2665.00,0.1068
2664.00,0.1067
2663.00,0.1067
2662.00,0.1066
2661.00,0.1065
2660.00,0.1065
2659.00,0.1065
2658.00,0.1065
2657.00,0.1065
2656.00,0.1065
2655.00,0.1066
2654.00,0.1068
2653.00,0.1069
2652.00,0.1071
2651.00,0.1071
2650.00,0.1070
2649.00,0.1068
2648.00,0.1065
2647.00,0.1062
2646.00,0.1060
2645.00,0.1058
2644.00,0.1056
2643.00,0.1055
2642.00,0.1054
2641.00,0.1054
2640.00,0.1054
2639.00,0.1054
2638.00,0.1054
2637.00,0.1055
2636.00,0.1056
2635.00,0.1058
2634.00,0.1059
2633.00,0.1060
2632.00,0.1059
2631.00,0.1058
2630.00,0.1056
2629.00,0.1055
2628.00,0.1053
2627.00,0.1052
2626.00,0.1050
2625.00,0.1049
2624.00,0.1048
2623.00,0.1047
2622.00,0.1046
2621.00,0.1045
2620.00,0.1045
2619.00,0.1044
2618.00,0.1043
2617.00,0.1043
2616.00,0.1043
2615.00,0.1042
2614.00,0.1041
2613.00,0.1041
2612.00,0.1041
2611.00,0.1041
2610.00,0.1041
2609.00,0.1042
2608.00,0.1043
2607.00,0.1045
2606.00,0.1047
2605.00,0.1048
2604.00,0.1050
2603.00,0.1051
2602.00,0.1052
2601.00,0.1053
2600.00,0.1053
2599.00,0.1054
2598.00,0.1054
2597.00,0.1053
2596.00,0.1052
2595.00,0.1051
2594.00,0.1051
2593.00,0.1050
2592.00,0.1049
2591.00,0.1049
2590.00,0.1049
2589.00,0.1049
2588.00,0.1049
2587.00,0.1050
2586.00,0.1051
2585.00,0.1051
2584.00,0.1050
2583.00,0.1050
2582.00,0.1048
2581.00,0.1047
2580.00,0.1045
2579.00,0.1044
2578.00,0.1043
2577.00,0.1041
2576.00,0.1041
2575.00,0.1040
2574.00,0.1040
2573.00,0.1039
2572.00,0.1039
2571.00,0.1038
2570.00,0.1037
2569.00,0.1036
2568.00,0.1035
2567.00,0.1034
2566.00,0.1033
2565.00,0.1032
2564.00,0.1031
2563.00,0.1031
2562.00,0.1030
2561.00,0.1030
2560.00,0.1031
2559.00,0.1031
2558.00,0.1032
2557.00,0.1033
2556.00,0.1034
2555.00,0.1034
2554.00,0.1035
2553.00,0.1036
2552.00,0.1036
2551.00,0.1037
2550.00,0.1037
2549.00,0.1038
2548.00,0.1038
2547.00,0.1039
2546.00,0.1039
2545.00,0.1039
2544.00,0.1039
2543.00,0.1039
2542.00,0.1038
2541.00,0.1038
2540.00,0.1038
2539.00,0.1039
2538.00,0.1040
2537.00,0.1042
2536.00,0.1044
2535.00,0.1045
2534.00,0.1046
2533.00,0.1048
2532.00,0.1051
2531.00,0.1053
2530.00,0.1053
2529.00,0.1050
2528.00,0.1047
2527.00,0.1044
2526.00,0.1042
2525.00,0.1041
2524.00,0.1041
2523.00,0.1043
2522.00,0.1044
2521.00,0.1046
2520.00,0.1046
2519.00,0.1046
2518.00,0.1045
2517.00,0.1045
2516.00,0.1044
2515.00,0.1044
2514.00,0.1043
2513.00,0.1042
2512.00,0.1042
2511.00,0.1041
2510.00,0.1041
2509.00,0.1040
2508.00,0.1039
2507.00,0.1038
2506.00,0.1036
2505.00,0.1035
2504.00,0.1034
2503.00,0.1033
2502.00,0.1033
2501.00,0.1033
2500.00,0.1033
2499.00,0.1033
2498.00,0.1033
2497.00,0.1032
2496.00,0.1032
2495.00,0.1032
2494.00,0.1031
2493.00,0.1031
2492.00,0.1030
2491.00,0.1030
2490.00,0.1030
2489.00,0.1030
2488.00,0.1030
2487.00,0.1030
2486.00,0.1030
2485.00,0.1030
2484.00,0.1029
2483.00,0.1029
2482.00,0.1028
2481.00,0.1027
2480.00,0.1027
2479.00,0.1027
2478.00,0.1027
2477.00,0.1027
2476.00,0.1028
2475.00,0.1030
2474.00,0.1032
2473.00,0.1033
2472.00,0.1034
2471.00,0.1035
2470.00,0.1036
2469.00,0.1037
2468.00,0.1038
2467.00,0.1039
2466.00,0.1039
2465.00,0.1039
2464.00,0.1038
2463.00,0.1037
2462.00,0.1036
2461.00,0.1035
2460.00,0.1034
2459.00,0.1033
2458.00,0.1034
2457.00,0.1035
2456.00,0.1036
2455.00,0.1037
2454.00,0.1037
2453.00,0.1037
2452.00,0.1036
2451.00,0.1035
2450.00,0.1034
2449.00,0.1032
2448.00,0.1031
2447.00,0.1030
2446.00,0.1031
2445.00,0.1031
2444.00,0.1033
2443.00,0.1035
2442.00,0.1037
2441.00,0.1039
2440.00,0.1041
2439.00,0.1042
2438.00,0.1044
2437.00,0.1044
2436.00,0.1044
2435.00,0.1043
2434.00,0.1042
2433.00,0.1040
2432.00,0.1039
2431.00,0.1039
2430.00,0.1041
2429.00,0.1043
2428.00,0.1048
2427.00,0.1054
2426.00,0.1064
2425.00,0.1075
2424.00,0.1088
2423.00,0.1097
2422.00,0.1101
2421.00,0.1100
2420.00,0.1094
2419.00,0.1086
2418.00,0.1079
2417.00,0.1074
2416.00,0.1071
2415.00,0.1069
2414.00,0.1068
2413.00,0.1066
2412.00,0.1064
2411.00,0.1061
2410.00,0.1058
2409.00,0.1055
2408.00,0.1052
2407.00,0.1050
2406.00,0.1047
2405.00,0.1045
2404.00,0.1042
2403.00,0.1040
2402.00,0.1037
2401.00,0.1035
2400.00,0.1033
2399.00,0.1031
2398.00,0.1030
2397.00,0.1029
2396.00,0.1029
2395.00,0.1029
2394.00,0.1029
2393.00,0.1029
2392.00,0.1030
2391.00,0.1031
2390.00,0.1032
2389.00,0.1033
2388.00,0.1035
2387.00,0.1037
2386.00,0.1040
2385.00,0.1044
2384.00,0.1048
2383.00,0.1051
2382.00,0.1051
2381.00,0.1051
2380.00,0.1050
2379.00,0.1050
2378.00,0.1051
2377.00,0.1053
2376.00,0.1057
2375.00,0.1061
2374.00,0.1063
2373.00,0.1065
2372.00,0.1065
2371.00,0.1063
2370.00,0.1061
2369.00,0.1059
2368.00,0.1057
2367.00,0.1057
2366.00,0.1057
2365.00,0.1058
2364.00,0.1060
2363.00,0.1061
2362.00,0.1062
2361.00,0.1063
2360.00,0.1065
2359.00,0.1067
2358.00,0.1069
2357.00,0.1071
2356.00,0.1073
2355.00,0.1075
2354.00,0.1078
2353.00,0.1080
2352.00,0.1080
2351.00,0.1077
2350.00,0.1072
2349.00,0.1069
2348.00,0.1069
2347.00,0.1069
2346.00,0.1069
2345.00,0.1067
2344.00,0.1064
2343.00,0.1062
2342.00,0.1062
2341.00,0.1064
2340.00,0.1064
2339.00,0.1066
2338.00,0.1068
2337.00,0.1071
2336.00,0.1071
2335.00,0.1069
2334.00,0.1067
2333.00,0.1066
2332.00,0.1067
2331.00,0.1069
2330.00,0.1070
2329.00,0.1071
2328.00,0.1072
2327.00,0.1072
2326.00,0.1071
2325.00,0.1068
2324.00,0.1066
2323.00,0.1064
2322.00,0.1064
2321.00,0.1064
2320.00,0.1064
2319.00,0.1062
2318.00,0.1059
2317.00,0.1055
2316.00,0.1051
2315.00,0.1048
2314.00,0.1046
2313.00,0.1045
2312.00,0.1046
2311.00,0.1046
2310.00,0.1048
2309.00,0.1052
2308.00,0.1057
2307.00,0.1062
2306.00,0.1066
2305.00,0.1068
2304.00,0.1068
2303.00,0.1065
2302.00,0.1062
2301.00,0.1059
2300.00,0.1058
2299.00,0.1058
2298.00,0.1061
2297.00,0.1065
2296.00,0.1070
2295.00,0.1073
2294.00,0.1076
2293.00,0.1077
2292.00,0.1079
2291.00,0.1082
2290.00,0.1085
2289.00,0.1088
2288.00,0.1089
2287.00,0.1087
2286.00,0.1081
2285.00,0.1074
2284.00,0.1066
2283.00,0.1058
2282.00,0.1051
2281.00,0.1046
2280.00,0.1042
2279.00,0.1040
2278.00,0.1040
2277.00,0.1041
2276.00,0.1043
2275.00,0.1044
2274.00,0.1045
2273.00,0.1045
2272.00,0.1044
2271.00,0.1042
2270.00,0.1039
2269.00,0.1037
2268.00,0.1035
2267.00,0.1033
2266.00,0.1031
2265.00,0.1029
2264.00,0.1027
2263.00,0.1026
2262.00,0.1025
2261.00,0.1025
2260.00,0.1025
2259.00,0.1024
2258.00,0.1024
2257.00,0.1023
2256.00,0.1024
2255.00,0.1027
2254.00,0.1031
2253.00,0.1036
2252.00,0.1039
2251.00,0.1039
2250.00,0.1036
2249.00,0.1031
2248.00,0.1027
2247.00,0.1023
2246.00,0.1021
2245.00,0.1020
2244.00,0.1019
2243.00,0.1018
2242.00,0.1017
2241.00,0.1016
2240.00,0.1016
2239.00,0.1016
2238.00,0.1017
2237.00,0.1017
2236.00,0.1017
2235.00,0.1017
2234.00,0.1017
2233.00,0.1017
2232.00,0.1016
2231.00,0.1015
2230.00,0.1014
2229.00,0.1013
2228.00,0.1012
2227.00,0.1011
2226.00,0.1010
2225.00,0.1008
2224.00,0.1007
2223.00,0.1007
2222.00,0.1008
2221.00,0.1008
2220.00,0.1008
2219.00,0.1008
2218.00,0.1007
2217.00,0.1006
2216.00,0.1006
2215.00,0.1006
2214.00,0.1006
2213.00,0.1006
2212.00,0.1007
2211.00,0.1008
2210.00,0.1008
2209.00,0.1007
2208.00,0.1007
2207.00,0.1006
2206.00,0.1005
2205.00,0.1005
2204.00,0.1004
2203.00,0.1003
2202.00,0.1003
2201.00,0.1002
2200.00,0.1003
2199.00,0.1004
2198.00,0.1005
2197.00,0.1005
2196.00,0.1005
2195.00,0.1004
2194.00,0.1003
2193.00,0.1002
2192.00,0.1001
2191.00,0.1000
2190.00,0.0999
2189.00,0.1000
2188.00,0.1000
2187.00,0.1001
2186.00,0.1000
2185.00,0.0999
2184.00,0.0997
2183.00,0.0995
2182.00,0.0993
2181.00,0.0991
2180.00,0.0991
2179.00,0.0992
2178.00,0.0993
2177.00,0.0994
2176.00,0.0996
2175.00,0.0999
2174.00,0.1003
2173.00,0.1006
2172.00,0.1009
2171.00,0.1012
2170.00,0.1013
2169.00,0.1014
2168.00,0.1013
2167.00,0.1013
2166.00,0.1013
2165.00,0.1014
2164.00,0.1015
2163.00,0.1014
2162.00,0.1009
2161.00,0.0999
2160.00,0.0987
2159.00,0.0978
2158.00,0.0975
2157.00,0.0976
2156.00,0.0980
2155.00,0.0985
2154.00,0.0989
2153.00,0.0991
2152.00,0.0991
2151.00,0.0991
2150.00,0.0990
2149.00,0.0990
2148.00,0.0990
2147.00,0.0990
2146.00,0.0991
2145.00,0.0992
2144.00,0.0993
2143.00,0.0993
2142.00,0.0993
2141.00,0.0991
2140.00,0.0990
2139.00,0.0988
2138.00,0.0986
2137.00,0.0985
2136.00,0.0983
2135.00,0.0983
2134.00,0.0984
2133.00,0.0985
2132.00,0.0987
2131.00,0.0988
2130.00,0.0990
2129.00,0.0991
2128.00,0.0993
2127.00,0.0995
2126.00,0.0997
2125.00,0.0999
2124.00,0.1000
2123.00,0.1001
2122.00,0.1001
2121.00,0.1001
2120.00,0.1001
2119.00,0.1001
2118.00,0.1002
2117.00,0.1003
2116.00,0.1004
2115.00,0.1004
2114.00,0.1004
2113.00,0.1005
2112.00,0.1005
2111.00,0.1006
2110.00,0.1006
2109.00,0.1007
2108.00,0.1007
2107.00,0.1008
2106.00,0.1010
2105.00,0.1011
2104.00,0.1013
2103.00,0.1013
2102.00,0.1011
2101.00,0.1008
2100.00,0.1004
2099.00,0.0999
2098.00,0.0995
2097.00,0.0993
2096.00,0.0992
2095.00,0.0992
2094.00,0.0993
2093.00,0.0995
2092.00,0.0997
2091.00,0.0998
2090.00,0.0999
2089.00,0.1000
2088.00,0.1001
2087.00,0.1001
2086.00,0.1002
2085.00,0.1002
2084.00,0.1003
2083.00,0.1004
2082.00,0.1006
2081.00,0.1008
2080.00,0.1011
2079.00,0.1013
2078.00,0.1014
2077.00,0.1014
2076.00,0.1013
2075.00,0.1010
2074.00,0.1006
2073.00,0.1003
2072.00,0.1000
2071.00,0.0998
2070.00,0.0996
2069.00,0.0996
2068.00,0.0996
2067.00,0.0997
2066.00,0.0998
2065.00,0.1000
2064.00,0.1001
2063.00,0.1001
2062.00,0.1001
2061.00,0.1000
2060.00,0.0999
2059.00,0.0998
2058.00,0.0997
2057.00,0.0995
2056.00,0.0994
2055.00,0.0993
2054.00,0.0994
2053.00,0.0995
2052.00,0.0996
2051.00,0.0995
2050.00,0.0991
2049.00,0.0988
2048.00,0.0986
2047.00,0.0985
2046.00,0.0986
2045.00,0.0987
2044.00,0.0990
2043.00,0.0994
2042.00,0.0998
2041.00,0.1002
2040.00,0.1005
2039.00,0.1006
2038.00,0.1007
2037.00,0.1007
2036.00,0.1007
2035.00,0.1005
2034.00,0.1002
2033.00,0.1000
2032.00,0.0999
2031.00,0.0999
2030.00,0.1000
2029.00,0.1000
2028.00,0.1001
2027.00,0.1000
2026.00,0.0998
2025.00,0.0994
2024.00,0.0992
2023.00,0.0989
2022.00,0.0986
2021.00,0.0983
2020.00,0.0981
2019.00,0.0978
2018.00,0.0975
2017.00,0.0971
2016.00,0.0967
2015.00,0.0963
2014.00,0.0961
2013.00,0.0960
2012.00,0.0959
2011.00,0.0960
2010.00,0.0960
2009.00,0.0960
2008.00,0.0961
2007.00,0.0962
2006.00,0.0962
2005.00,0.0962
2004.00,0.0963
2003.00,0.0966
2002.00,0.0971
2001.00,0.0977
2000.00,0.0983
1999.00,0.0989
1998.00,0.0991
1997.00,0.0990
1996.00,0.0988
1995.00,0.0987
1994.00,0.0987
1993.00,0.0991
1992.00,0.0998
1991.00,0.1006
1990.00,0.1012
1989.00,0.1015
1988.00,0.1015
1987.00,0.1011
1986.00,0.1006
1985.00,0.1002
1984.00,0.0999
1983.00,0.0998
1982.00,0.0997
1981.00,0.0994
1980.00,0.0990
1979.00,0.0985
1978.00,0.0979
1977.00,0.0974
1976.00,0.0973
1975.00,0.0973
1974.00,0.0974
1973.00,0.0974
1972.00,0.0975
1971.00,0.0977
1970.00,0.0979
1969.00,0.0981
1968.00,0.0983
1967.00,0.0987
1966.00,0.0991
1965.00,0.0996
1964.00,0.1004
1963.00,0.1017
1962.00,0.1035
1961.00,0.1064
1960.00,0.1106
1959.00,0.1161
1958.00,0.1223
1957.00,0.1280
1956.00,0.1321
1955.00,0.1336
1954.00,0.1327
1953.00,0.1301
1952.00,0.1269
1951.00,0.1240
1950.00,0.1218
1949.00,0.1202
1948.00,0.1194
1947.00,0.1192
1946.00,0.1195
1945.00,0.1200
1944.00,0.1205
1943.00,0.1208
1942.00,0.1206
1941.00,0.1199
1940.00,0.1188
1939.00,0.1173
1938.00,0.1154
1937.00,0.1133
1936.00,0.1114
1935.00,0.1098
1934.00,0.1086
1933.00,0.1077
1932.00,0.1072
1931.00,0.1071
1930.00,0.1073
1929.00,0.1079
1928.00,0.1088
1927.00,0.1100
1926.00,0.1115
1925.00,0.1133
1924.00,0.1150
1923.00,0.1163
1922.00,0.1168
1921.00,0.1163
1920.00,0.1152
1919.00,0.1139
1918.00,0.1128
1917.00,0.1122
1916.00,0.1124
1915.00,0.1133
1914.00,0.1149
1913.00,0.1171
1912.00,0.1200
1911.00,0.1233
1910.00,0.1266
1909.00,0.1292
1908.00,0.1304
1907.00,0.1301
1906.00,0.1286
1905.00,0.1262
1904.00,0.1235
1903.00,0.1209
1902.00,0.1185
1901.00,0.1163
1900.00,0.1144
1899.00,0.1128
1898.00,0.1114
1897.00,0.1103
1896.00,0.1094
1895.00,0.1086
1894.00,0.1078
1893.00,0.1070
1892.00,0.1065
1891.00,0.1060
1890.00,0.1055
1889.00,0.1051
1888.00,0.1046
1887.00,0.1043
1886.00,0.1040
1885.00,0.1037
1884.00,0.1035
1883.00,0.1033
1882.00,0.1031
1881.00,0.1029
1880.00,0.1027
1879.00,0.1025
1878.00,0.1024
1877.00,0.1024
1876.00,0.1024
1875.00,0.1024
1874.00,0.1025
1873.00,0.1026
1872.00,0.1029
1871.00,0.1032
1870.00,0.1037
1869.00,0.1044
1868.00,0.1052
1867.00,0.1062
1866.00,0.1074
1865.00,0.1087
1864.00,0.1101
1863.00,0.1115
1862.00,0.1132
1861.00,0.1150
1860.00,0.1170
1859.00,0.1190
1858.00,0.1209
1857.00,0.1222
1856.00,0.1224
1855.00,0.1216
1854.00,0.1200
1853.00,0.1181
1852.00,0.1165
1851.00,0.1153
1850.00,0.1148
1849.00,0.1148
1848.00,0.1153
1847.00,0.1160
1846.00,0.1170
1845.00,0.1180
1844.00,0.1186
1843.00,0.1184
1842.00,0.1174
1841.00,0.1158
1840.00,0.1139
1839.00,0.1119
1838.00,0.1101
1837.00,0.1086
1836.00,0.1075
1835.00,0.1067
1834.00,0.1061
1833.00,0.1057
1832.00,0.1055
1831.00,0.1056
1830.00,0.1059
1829.00,0.1066
1828.00,0.1076
1827.00,0.1091
1826.00,0.1109
1825.00,0.1130
1824.00,0.1150
1823.00,0.1167
1822.00,0.1183
1821.00,0.1198
1820.00,0.1213
1819.00,0.1228
1818.00,0.1240
1817.00,0.1247
1816.00,0.1243
1815.00,0.1231
1814.00,0.1211
1813.00,0.1189
1812.00,0.1166
1811.00,0.1145
1810.00,0.1127
1809.00,0.1112
1808.00,0.1100
1807.00,0.1090
1806.00,0.1081
1805.00,0.1074
1804.00,0.1069
1803.00,0.1065
1802.00,0.1062
1801.00,0.1058
1800.00,0.1055
1799.00,0.1053
1798.00,0.1052
1797.00,0.1053
1796.00,0.1055
1795.00,0.1060
1794.00,0.1067
1793.00,0.1078
1792.00,0.1091
1791.00,0.1106
1790.00,0.1121
1789.00,0.1136
1788.00,0.1151
1787.00,0.1166
1786.00,0.1178
1785.00,0.1186
1784.00,0.1187
1783.00,0.1180
1782.00,0.1167
1781.00,0.1151
1780.00,0.1133
1779.00,0.1118
1778.00,0.1106
1777.00,0.1098
1776.00,0.1091
1775.00,0.1085
1774.00,0.1081
1773.00,0.1077
1772.00,0.1074
1771.00,0.1072
1770.00,0.1070
1769.00,0.1070
1768.00,0.1069
1767.00,0.1066
1766.00,0.1063
1765.00,0.1060
1764.00,0.1057
1763.00,0.1054
1762.00,0.1051
1761.00,0.1047
1760.00,0.1045
1759.00,0.1044
1758.00,0.1043
1757.00,0.1042
1756.00,0.1042
1755.00,0.1043
1754.00,0.1046
1753.00,0.1051
1752.00,0.1059
1751.00,0.1071
1750.00,0.1085
1749.00,0.1101
1748.00,0.1119
1747.00,0.1138
1746.00,0.1159
1745.00,0.1178
1744.00,0.1197
1743.00,0.1217
1742.00,0.1240
1741.00,0.1271
1740.00,0.1311
1739.00,0.1350
1738.00,0.1379
1737.00,0.1393
1736.00,0.1395
1735.00,0.1385
1734.00,0.1364
1733.00,0.1338
1732.00,0.1316
1731.00,0.1296
1730.00,0.1277
1729.00,0.1257
1728.00,0.1241
1727.00,0.1229
1726.00,0.1220
1725.00,0.1214
1724.00,0.1210
1723.00,0.1207
1722.00,0.1204
1721.00,0.1202
1720.00,0.1202
1719.00,0.1205
1718.00,0.1209
1717.00,0.1211
1716.00,0.1206
1715.00,0.1193
1714.00,0.1176
1713.00,0.1158
1712.00,0.1142
1711.00,0.1129
1710.00,0.1119
1709.00,0.1110
1708.00,0.1104
1707.00,0.1099
1706.00,0.1095
1705.00,0.1091
1704.00,0.1089
1703.00,0.1087
1702.00,0.1086
1701.00,0.1087
1700.00,0.1088
1699.00,0.1091
1698.00,0.1098
1697.00,0.1109
1696.00,0.1123
1695.00,0.1137
1694.00,0.1149
1693.00,0.1162
1692.00,0.1175
1691.00,0.1186
1690.00,0.1196
1689.00,0.1204
1688.00,0.1210
1687.00,0.1215
1686.00,0.1218
1685.00,0.1220
1684.00,0.1219
1683.00,0.1215
1682.00,0.1210
1681.00,0.1208
1680.00,0.1205
1679.00,0.1204
1678.00,0.1204
1677.00,0.1207
1676.00,0.1214
1675.00,0.1224
1674.00,0.1232
1673.00,0.1235
1672.00,0.1234
1671.00,0.1227
1670.00,0.1214
1669.00,0.1195
1668.00,0.1176
1667.00,0.1159
1666.00,0.1144
1665.00,0.1130
1664.00,0.1116
1663.00,0.1104
1662.00,0.1094
1661.00,0.1085
1660.00,0.1079
1659.00,0.1074
1658.00,0.1070
1657.00,0.1065
1656.00,0.1061
1655.00,0.1058
1654.00,0.1060
1653.00,0.1062
1652.00,0.1062
1651.00,0.1065
1650.00,0.1068
1649.00,0.1067
1648.00,0.1064
1647.00,0.1061
1646.00,0.1057
1645.00,0.1054
1644.00,0.1055
1643.00,0.1057
1642.00,0.1060
1641.00,0.1062
1640.00,0.1064
1639.00,0.1065
1638.00,0.1066
1637.00,0.1066
1636.00,0.1065
1635.00,0.1063
1634.00,0.1058
1633.00,0.1053
1632.00,0.1049
1631.00,0.1044
1630.00,0.1039
1629.00,0.1035
1628.00,0.1031
1627.00,0.1028
1626.00,0.1026
1625.00,0.1024
1624.00,0.1022
1623.00,0.1020
1622.00,0.1018
1621.00,0.1016
1620.00,0.1015
1619.00,0.1014
1618.00,0.1015
1617.00,0.1016
1616.00,0.1018
1615.00,0.1020
1614.00,0.1023
1613.00,0.1025
1612.00,0.1027
1611.00,0.1029
1610.00,0.1032
1609.00,0.1034
1608.00,0.1039
1607.00,0.1044
1606.00,0.1048
1605.00,0.1048
1604.00,0.1045
1603.00,0.1040
1602.00,0.1032
1601.00,0.1020
1600.00,0.1009
1599.00,0.1001
1598.00,0.1016
1597.00,0.1095
1596.00,0.1294
1595.00,0.1624
1594.00,0.1998
1593.00,0.2242
1592.00,0.2237
1591.00,0.2039
1590.00,0.1802
1589.00,0.1626
1588.00,0.1518
1587.00,0.1439
1586.00,0.1364
1585.00,0.1294
1584.00,0.1235
1583.00,0.1194
1582.00,0.1167
1581.00,0.1150
1580.00,0.1138
1579.00,0.1126
1578.00,0.1117
1577.00,0.1112
1576.00,0.1111
1575.00,0.1116
1574.00,0.1128
1573.00,0.1145
1572.00,0.1169
1571.00,0.1199
1570.00,0.1235
1569.00,0.1270
1568.00,0.1295
1567.00,0.1303
1566.00,0.1297
1565.00,0.1281
1564.00,0.1262
1563.00,0.1244
1562.00,0.1229
1561.00,0.1215
1560.00,0.1201
1559.00,0.1182
1558.00,0.1159
1557.00,0.1143
1556.00,0.1135
1555.00,0.1126
1554.00,0.1111
1553.00,0.1095
1552.00,0.1080
1551.00,0.1066
1550.00,0.1054
1549.00,0.1044
1548.00,0.1036
1547.00,0.1030
1546.00,0.1024
1545.00,0.1020
1544.00,0.1015
1543.00,0.1009
1542.00,0.1003
1541.00,0.0998
1540.00,0.0993
1539.00,0.0988
1538.00,0.0984
1537.00,0.0982
1536.00,0.0980
1535.00,0.0976
1534.00,0.0970
1533.00,0.0964
1532.00,0.0959
1531.00,0.0954
1530.00,0.0949
1529.00,0.0944
1528.00,0.0938
1527.00,0.0934
1526.00,0.0937
1525.00,0.0958
1524.00,0.1008
1523.00,0.1095
1522.00,0.1206
1521.00,0.1302
1520.00,0.1344
1519.00,0.1334
1518.00,0.1293
1517.00,0.1234
1516.00,0.1172
1515.00,0.1126
1514.00,0.1117
1513.00,0.1159
1512.00,0.1247
1511.00,0.1349
1510.00,0.1428
1509.00,0.1472
1508.00,0.1525
1507.00,0.1667
1506.00,0.1916
1505.00,0.2169
1504.00,0.2320
1503.00,0.2350
1502.00,0.2290
1501.00,0.2180
1500.00,0.2050
1499.00,0.1914
1498.00,0.1781
1497.00,0.1660
1496.00,0.1559
1495.00,0.1485
1494.00,0.1433
1493.00,0.1396
1492.00,0.1367
1491.00,0.1342
1490.00,0.1320
1489.00,0.1302
1488.00,0.1286
1487.00,0.1271
1486.00,0.1257
1485.00,0.1245
1484.00,0.1235
1483.00,0.1225
1482.00,0.1217
1481.00,0.1209
1480.00,0.1203
1479.00,0.1197
1478.00,0.1192
1477.00,0.1187
1476.00,0.1182
1475.00,0.1178
1474.00,0.1174
1473.00,0.1170
1472.00,0.1167
1471.00,0.1164
1470.00,0.1161
1469.00,0.1160
1468.00,0.1159
1467.00,0.1157
1466.00,0.1154
1465.00,0.1151
1464.00,0.1149
1463.00,0.1147
1462.00,0.1144
1461.00,0.1142
1460.00,0.1140
1459.00,0.1138
1458.00,0.1136
1457.00,0.1135
1456.00,0.1134
1455.00,0.1134
1454.00,0.1134
1453.00,0.1134
1452.00,0.1135
1451.00,0.1138
1450.00,0.1143
1449.00,0.1153
1448.00,0.1169
1447.00,0.1189
1446.00,0.1209
1445.00,0.1224
1444.00,0.1230
1443.00,0.1226
1442.00,0.1212
1441.00,0.1197
1440.00,0.1184
1439.00,0.1175
1438.00,0.1170
1437.00,0.1171
1436.00,0.1178
1435.00,0.1187
1434.00,0.1195
1433.00,0.1201
1432.00,0.1204
1431.00,0.1202
1430.00,0.1196
1429.00,0.1186
1428.00,0.1176
1427.00,0.1166
1426.00,0.1156
1425.00,0.1146
1424.00,0.1138
1423.00,0.1131
1422.00,0.1124
1421.00,0.1118
1420.00,0.1114
1419.00,0.1112
1418.00,0.1108
1417.00,0.1105
1416.00,0.1103
1415.00,0.1101
1414.00,0.1097
1413.00,0.1093
1412.00,0.1091
1411.00,0.1089
1410.00,0.1086
1409.00,0.1083
1408.00,0.1082
1407.00,0.1081
1406.00,0.1079
1405.00,0.1076
1404.00,0.1075
1403.00,0.1074
1402.00,0.1072
1401.00,0.1070
1400.00,0.1069
1399.00,0.1069
1398.00,0.1068
1397.00,0.1068
1396.00,0.1074
1395.00,0.1100
1394.00,0.1179
1393.00,0.1357
1392.00,0.1653
1391.00,0.2009
1390.00,0.2292
1389.00,0.2378
1388.00,0.2273
1387.00,0.2101
1386.00,0.1964
1385.00,0.1867
1384.00,0.1774
1383.00,0.1665
1382.00,0.1554
1381.00,0.1456
1380.00,0.1376
1379.00,0.1314
1378.00,0.1268
1377.00,0.1235
1376.00,0.1212
1375.00,0.1198
1374.00,0.1195
1373.00,0.1200
1372.00,0.1211
1371.00,0.1227
1370.00,0.1251
1369.00,0.1279
1368.00,0.1307
1367.00,0.1333
1366.00,0.1362
1365.00,0.1404
1364.00,0.1461
1363.00,0.1519
1362.00,0.1548
1361.00,0.1526
1360.00,0.1464
1359.00,0.1391
1358.00,0.1331
1357.00,0.1293
1356.00,0.1269
1355.00,0.1256
1354.00,0.1249
1353.00,0.1247
1352.00,0.1248
1351.00,0.1249
1350.00,0.1247
1349.00,0.1240
1348.00,0.1225
1347.00,0.1205
1346.00,0.1185
1345.00,0.1167
1344.00,0.1152
1343.00,0.1139
1342.00,0.1131
1341.00,0.1125
1340.00,0.1121
1339.00,0.1116
1338.00,0.1112
1337.00,0.1108
1336.00,0.1103
1335.00,0.1099
1334.00,0.1096
1333.00,0.1093
1332.00,0.1091
1331.00,0.1089
1330.00,0.1087
1329.00,0.1085
1328.00,0.1084
1327.00,0.1082
1326.00,0.1082
1325.00,0.1081
1324.00,0.1081
1323.00,0.1080
1322.00,0.1080
1321.00,0.1080
1320.00,0.1079
1319.00,0.1078
1318.00,0.1078
1317.00,0.1078
1316.00,0.1078
1315.00,0.1078
1314.00,0.1080
1313.00,0.1083
1312.00,0.1087
1311.00,0.1093
1310.00,0.1100
1309.00,0.1107
1308.00,0.1112
1307.00,0.1118
1306.00,0.1124
1305.00,0.1130
1304.00,0.1134
1303.00,0.1133
1302.00,0.1125
1301.00,0.1113
1300.00,0.1100
1299.00,0.1087
1298.00,0.1075
1297.00,0.1066
1296.00,0.1058
1295.00,0.1051
1294.00,0.1045
1293.00,0.1040
1292.00,0.1036
1291.00,0.1032
1290.00,0.1029
1289.00,0.1026
1288.00,0.1023
1287.00,0.1020
1286.00,0.1016
1285.00,0.1014
1284.00,0.1012
1283.00,0.1011
1282.00,0.1010
1281.00,0.1013
1280.00,0.1020
1279.00,0.1036
1278.00,0.1078
1277.00,0.1172
1276.00,0.1344
1275.00,0.1599
1274.00,0.1891
1273.00,0.2131
1272.00,0.2231
1271.00,0.2166
1270.00,0.1985
1269.00,0.1771
1268.00,0.1585
1267.00,0.1454
1266.00,0.1376
1265.00,0.1333
1264.00,0.1309
1263.00,0.1288
1262.00,0.1265
1261.00,0.1237
1260.00,0.1209
1259.00,0.1186
1258.00,0.1173
1257.00,0.1170
1256.00,0.1175
1255.00,0.1187
1254.00,0.1205
1253.00,0.1227
1252.00,0.1251
1251.00,0.1277
1250.00,0.1307
1249.00,0.1344
1248.00,0.1393
1247.00,0.1453
1246.00,0.1516
1245.00,0.1561
1244.00,0.1568
1243.00,0.1532
1242.00,0.1466
1241.00,0.1390
1240.00,0.1320
1239.00,0.1263
1238.00,0.1219
1237.00,0.1187
1236.00,0.1162
1235.00,0.1142
1234.00,0.1127
1233.00,0.1114
1232.00,0.1104
1231.00,0.1093
1230.00,0.1083
1229.00,0.1072
1228.00,0.1061
1227.00,0.1050
1226.00,0.1039
1225.00,0.1028
1224.00,0.1018
1223.00,0.1010
1222.00,0.1006
1221.00,0.1010
1220.00,0.1027
1219.00,0.1065
1218.00,0.1128
1217.00,0.1221
1216.00,0.1343
1215.00,0.1485
1214.00,0.1638
1213.00,0.1785
1212.00,0.1905
1211.00,0.1972
1210.00,0.1972
1209.00,0.1907
1208.00,0.1799
1207.00,0.1677
1206.00,0.1566
1205.00,0.1476
1204.00,0.1408
1203.00,0.1359
1202.00,0.1325
1201.00,0.1301
1200.00,0.1282
1199.00,0.1268
1198.00,0.1256
1197.00,0.1247
1196.00,0.1239
1195.00,0.1235
1194.00,0.1233
1193.00,0.1234
1192.00,0.1236
1191.00,0.1237
1190.00,0.1238
1189.00,0.1238
1188.00,0.1236
1187.00,0.1233
1186.00,0.1229
1185.00,0.1224
1184.00,0.1219
1183.00,0.1215
1182.00,0.1214
1181.00,0.1219
1180.00,0.1231
1179.00,0.1250
1178.00,0.1274
1177.00,0.1294
1176.00,0.1303
1175.00,0.1295
1174.00,0.1274
1173.00,0.1247
1172.00,0.1220
1171.00,0.1197
1170.00,0.1178
1169.00,0.1163
1168.00,0.1152
1167.00,0.1142
1166.00,0.1133
1165.00,0.1126
1164.00,0.1120
1163.00,0.1115
1162.00,0.1109
1161.00,0.1105
1160.00,0.1101
1159.00,0.1096
1158.00,0.1092
1157.00,0.1088
1156.00,0.1083
1155.00,0.1078
1154.00,0.1071
1153.00,0.1065
1152.00,0.1058
1151.00,0.1051
1150.00,0.1044
1149.00,0.1039
1148.00,0.1037
1147.00,0.1038
1146.00,0.1053
1145.00,0.1094
1144.00,0.1167
1143.00,0.1251
1142.00,0.1305
1141.00,0.1296
1140.00,0.1233
1139.00,0.1151
1138.00,0.1084
1137.00,0.1037
1136.00,0.1002
1135.00,0.0974
1134.00,0.0955
1133.00,0.0958
1132.00,0.1006
1131.00,0.1130
1130.00,0.1352
1129.00,0.1645
1128.00,0.1925
1127.00,0.2109
1126.00,0.2199
1125.00,0.2269
1124.00,0.2367
1123.00,0.2447
1122.00,0.2419
1121.00,0.2256
1120.00,0.2026
1119.00,0.1815
1118.00,0.1658
1117.00,0.1548
1116.00,0.1468
1115.00,0.1410
1114.00,0.1367
1113.00,0.1336
1112.00,0.1311
1111.00,0.1292
1110.00,0.1277
1109.00,0.1264
1108.00,0.1252
1107.00,0.1242
1106.00,0.1234
1105.00,0.1226
1104.00,0.1220
1103.00,0.1214
1102.00,0.1210
1101.00,0.1205
1100.00,0.1199
1099.00,0.1195
1098.00,0.1191
1097.00,0.1188
1096.00,0.1184
1095.00,0.1182
1094.00,0.1183
1093.00,0.1188
1092.00,0.1197
1091.00,0.1210
1090.00,0.1224
1089.00,0.1232
1088.00,0.1232
1087.00,0.1225
1086.00,0.1214
1085.00,0.1203
1084.00,0.1193
1083.00,0.1185
1082.00,0.1178
1081.00,0.1172
1080.00,0.1165
1079.00,0.1160
1078.00,0.1156
1077.00,0.1153
1076.00,0.1150
1075.00,0.1148
1074.00,0.1146
1073.00,0.1145
1072.00,0.1143
1071.00,0.1140
1070.00,0.1139
1069.00,0.1138
1068.00,0.1137
1067.00,0.1136
1066.00,0.1135
1065.00,0.1135
1064.00,0.1133
1063.00,0.1131
1062.00,0.1129
1061.00,0.1128
1060.00,0.1125
1059.00,0.1123
1058.00,0.1122
1057.00,0.1120
1056.00,0.1119
1055.00,0.1117
1054.00,0.1115
1053.00,0.1113
1052.00,0.1111
1051.00,0.1108
1050.00,0.1107
1049.00,0.1105
1048.00,0.1102
1047.00,0.1100
1046.00,0.1098
1045.00,0.1095
1044.00,0.1092
1043.00,0.1089
1042.00,0.1086
1041.00,0.1084
1040.00,0.1080
1039.00,0.1076
1038.00,0.1073
1037.00,0.1071
1036.00,0.1067
1035.00,0.1063
1034.00,0.1059
1033.00,0.1056
1032.00,0.1051
1031.00,0.1047
1030.00,0.1042
1029.00,0.1038
1028.00,0.1033
1027.00,0.1026
1026.00,0.1021
1025.00,0.1014
1024.00,0.1007
1023.00,0.0999
1022.00,0.0992
1021.00,0.0985
1020.00,0.0976
1019.00,0.0964
1018.00,0.0947
1017.00,0.0927
1016.00,0.0904
1015.00,0.0880
1014.00,0.0857
1013.00,0.0840
1012.00,0.0846
1011.00,0.0924
1010.00,0.1131
1009.00,0.1482
1008.00,0.1901
1007.00,0.2227
1006.00,0.2329
1005.00,0.2228
1004.00,0.2048
1003.00,0.1887
1002.00,0.1767
1001.00,0.1670
1000.00,0.1584
999.00,0.1509
998.00,0.1447
997.00,0.1400
996.00,0.1364
995.00,0.1338
994.00,0.1317
993.00,0.1297
992.00,0.1278
991.00,0.1261
990.00,0.1247
989.00,0.1235
988.00,0.1226
987.00,0.1223
986.00,0.1224
985.00,0.1236
984.00,0.1269
983.00,0.1334
982.00,0.1425
981.00,0.1512
980.00,0.1558
979.00,0.1551
978.00,0.1510
977.00,0.1467
976.00,0.1438
975.00,0.1421
974.00,0.1408
973.00,0.1394
972.00,0.1377
971.00,0.1358
970.00,0.1338
969.00,0.1319
968.00,0.1305
967.00,0.1302
966.00,0.1318
965.00,0.1369
964.00,0.1476
963.00,0.1660
962.00,0.1919
961.00,0.2215
960.00,0.2462
959.00,0.2566
958.00,0.2486
957.00,0.2268
956.00,0.2008
955.00,0.1780
954.00,0.1611
953.00,0.1497
952.00,0.1422
951.00,0.1372
950.00,0.1336
949.00,0.1310
948.00,0.1289
947.00,0.1273
946.00,0.1260
945.00,0.1250
944.00,0.1243
943.00,0.1239
942.00,0.1239
941.00,0.1240
940.00,0.1243
939.00,0.1247
938.00,0.1250
937.00,0.1251
936.00,0.1251
935.00,0.1250
934.00,0.1246
933.00,0.1240
932.00,0.1232
931.00,0.1224
930.00,0.1216
929.00,0.1208
928.00,0.1201
927.00,0.1195
926.00,0.1190
925.00,0.1186
924.00,0.1182
923.00,0.1180
922.00,0.1179
921.00,0.1179
920.00,0.1180
919.00,0.1183
918.00,0.1187
917.00,0.1191
916.00,0.1194
915.00,0.1197
914.00,0.1198
913.00,0.1197
912.00,0.1195
911.00,0.1192
910.00,0.1190
909.00,0.1187
908.00,0.1183
907.00,0.1180
906.00,0.1176
905.00,0.1172
904.00,0.1168
903.00,0.1164
902.00,0.1160
901.00,0.1157
900.00,0.1154
899.00,0.1151
898.00,0.1148
897.00,0.1145
896.00,0.1143
895.00,0.1141
894.00,0.1138
893.00,0.1135
892.00,0.1130
891.00,0.1127
890.00,0.1125
889.00,0.1123
888.00,0.1121
887.00,0.1121
886.00,0.1121
885.00,0.1121
884.00,0.1122
883.00,0.1123
882.00,0.1125
881.00,0.1126
880.00,0.1126
879.00,0.1126
878.00,0.1127
877.00,0.1127
876.00,0.1127
875.00,0.1128
874.00,0.1131
873.00,0.1134
872.00,0.1136
871.00,0.1137
870.00,0.1137
869.00,0.1135
868.00,0.1132
867.00,0.1130
866.00,0.1129
865.00,0.1128
864.00,0.1127
863.00,0.1126
862.00,0.1125
861.00,0.1123
860.00,0.1122
859.00,0.1121
858.00,0.1122
857.00,0.1121
856.00,0.1120
855.00,0.1120
854.00,0.1122
853.00,0.1123
852.00,0.1125
851.00,0.1130
850.00,0.1141
849.00,0.1167
848.00,0.1229
847.00,0.1344
846.00,0.1492
845.00,0.1609
844.00,0.1633
843.00,0.1560
842.00,0.1443
841.00,0.1340
840.00,0.1271
839.00,0.1229
838.00,0.1200
837.00,0.1183
836.00,0.1175
835.00,0.1172
834.00,0.1173
833.00,0.1177
832.00,0.1183
831.00,0.1188
830.00,0.1191
829.00,0.1191
828.00,0.1191
827.00,0.1193
826.00,0.1201
825.00,0.1219
824.00,0.1244
823.00,0.1272
822.00,0.1293
821.00,0.1304
820.00,0.1304
819.00,0.1292
818.00,0.1272
817.00,0.1248
816.00,0.1222
815.00,0.1198
814.00,0.1175
813.00,0.1154
812.00,0.1136
811.00,0.1121
810.00,0.1107
809.00,0.1094
808.00,0.1084
807.00,0.1076
806.00,0.1068
805.00,0.1064
804.00,0.1063
803.00,0.1068
802.00,0.1086
801.00,0.1138
800.00,0.1245
799.00,0.1395
798.00,0.1538
797.00,0.1623
796.00,0.1655
795.00,0.1710
794.00,0.1872
793.00,0.2181
792.00,0.2612
791.00,0.3083
790.00,0.3488
789.00,0.3749
788.00,0.3855
787.00,0.3855
786.00,0.3814
785.00,0.3775
784.00,0.3763
783.00,0.3793
782.00,0.3886
781.00,0.4058
780.00,0.4317
779.00,0.4656
778.00,0.5035
777.00,0.5384
776.00,0.5630
775.00,0.5746
774.00,0.5756
773.00,0.5698
772.00,0.5600
771.00,0.5474
770.00,0.5330
769.00,0.5175
768.00,0.5008
767.00,0.4832
766.00,0.4651
765.00,0.4472
764.00,0.4295
763.00,0.4125
762.00,0.3965
761.00,0.3816
760.00,0.3672
759.00,0.3530
758.00,0.3388
757.00,0.3253
756.00,0.3132
755.00,0.3031
754.00,0.2950
753.00,0.2890
752.00,0.2848
751.00,0.2820
750.00,0.2796
749.00,0.2763
748.00,0.2709
747.00,0.2631
746.00,0.2536
745.00,0.2434
744.00,0.2337
743.00,0.2252
742.00,0.2179
741.00,0.2118
740.00,0.2066
739.00,0.2023
738.00,0.1986
737.00,0.1956
736.00,0.1932
735.00,0.1918
734.00,0.1913
733.00,0.1918
732.00,0.1928
731.00,0.1937
730.00,0.1941
729.00,0.1934
728.00,0.1917
727.00,0.1890
726.00,0.1857
725.00,0.1820
724.00,0.1781
723.00,0.1744
722.00,0.1712
721.00,0.1684
720.00,0.1659
719.00,0.1638
718.00,0.1618
717.00,0.1599
716.00,0.1579
715.00,0.1559
714.00,0.1539
713.00,0.1521
712.00,0.1504
711.00,0.1488
710.00,0.1475
709.00,0.1463
708.00,0.1452
707.00,0.1443
706.00,0.1434
705.00,0.1426
704.00,0.1419
703.00,0.1414
702.00,0.1408
701.00,0.1404
700.00,0.1399
699.00,0.1394
698.00,0.1390
697.00,0.1386
696.00,0.1382
695.00,0.1377
694.00,0.1372
693.00,0.1367
692.00,0.1362
691.00,0.1357
690.00,0.1353
689.00,0.1350
688.00,0.1346
687.00,0.1342
686.00,0.1339
685.00,0.1335
684.00,0.1330
683.00,0.1326
682.00,0.1323
681.00,0.1319
680.00,0.1314
679.00,0.1310
678.00,0.1305
677.00,0.1300
676.00,0.1294
675.00,0.1290
674.00,0.1285
673.00,0.1281
672.00,0.1277
671.00,0.1275
670.00,0.1277
669.00,0.1285
668.00,0.1298
667.00,0.1304
666.00,0.1291
665.00,0.1271
664.00,0.1258
663.00,0.1252
662.00,0.1250
661.00,0.1249
660.00,0.1248
659.00,0.1247
658.00,0.1245
657.00,0.1242
656.00,0.1238
655.00,0.1233
654.00,0.1227
653.00,0.1220
652.00,0.1212
651.00,0.1205
650.00,0.1198
649.00,0.1192
648.00,0.1186
647.00,0.1181
646.00,0.1176
645.00,0.1170
644.00,0.1164
643.00,0.1160
642.00,0.1156
641.00,0.1151
640.00,0.1146
639.00,0.1142
638.00,0.1138
637.00,0.1132
636.00,0.1127
635.00,0.1123
634.00,0.1118
633.00,0.1112
632.00,0.1106
631.00,0.1101
630.00,0.1095
629.00,0.1085
628.00,0.1073
627.00,0.1063
626.00,0.1060
625.00,0.1063
624.00,0.1063
623.00,0.1046
622.00,0.1017
621.00,0.1027
620.00,0.1157
619.00,0.1448
618.00,0.1826
617.00,0.2115
616.00,0.2175
615.00,0.2042
614.00,0.1853
613.00,0.1692
612.00,0.1569
611.00,0.1474
610.00,0.1406
609.00,0.1365
608.00,0.1339
607.00,0.1317
606.00,0.1302
605.00,0.1293
604.00,0.1287
603.00,0.1279
602.00,0.1274
601.00,0.1272
600.00,0.1269
599.00,0.1264
598.00,0.1259
597.00,0.1255
596.00,0.1249
595.00,0.1241
594.00,0.1235
593.00,0.1232
592.00,0.1230
591.00,0.1228
590.00,0.1228
589.00,0.1231
588.00,0.1233
587.00,0.1235
586.00,0.1239
585.00,0.1246
584.00,0.1255
583.00,0.1264
582.00,0.1275
581.00,0.1285
580.00,0.1293
579.00,0.1298
578.00,0.1301
577.00,0.1302
576.00,0.1300
575.00,0.1293
574.00,0.1285
573.00,0.1277
572.00,0.1269
571.00,0.1259
570.00,0.1249
569.00,0.1241
568.00,0.1234
567.00,0.1228
566.00,0.1226
565.00,0.1228
564.00,0.1231
563.00,0.1233
562.00,0.1237
561.00,0.1242
560.00,0.1245
559.00,0.1245
558.00,0.1243
557.00,0.1238
556.00,0.1232
555.00,0.1226
554.00,0.1221
553.00,0.1217
552.00,0.1211
551.00,0.1206
550.00,0.1201
549.00,0.1200
548.00,0.1199
547.00,0.1197
546.00,0.1196
545.00,0.1195
544.00,0.1192
543.00,0.1189
542.00,0.1186
541.00,0.1184
540.00,0.1182
539.00,0.1179
538.00,0.1177
537.00,0.1177
536.00,0.1175
535.00,0.1172
534.00,0.1170
533.00,0.1169
532.00,0.1168
531.00,0.1166
530.00,0.1164
529.00,0.1164
528.00,0.1164
527.00,0.1165
526.00,0.1165
525.00,0.1166
524.00,0.1164
523.00,0.1161
522.00,0.1158
521.00,0.1158
520.00,0.1159
519.00,0.1160
518.00,0.1161
517.00,0.1161
516.00,0.1158
515.00,0.1155
514.00,0.1153
513.00,0.1153
512.00,0.1153
511.00,0.1152
510.00,0.1150
509.00,0.1150
508.00,0.1151
507.00,0.1155
506.00,0.1162
505.00,0.1169
504.00,0.1173
503.00,0.1172
502.00,0.1167
501.00,0.1161
500.00,0.1154
499.00,0.1146
498.00,0.1140
497.00,0.1137
496.00,0.1135
495.00,0.1137
494.00,0.1142
493.00,0.1152
492.00,0.1166
491.00,0.1187
490.00,0.1223
489.00,0.1284
488.00,0.1387
487.00,0.1553
486.00,0.1808
485.00,0.2173
484.00,0.2657
483.00,0.3235
482.00,0.3827
481.00,0.4298
480.00,0.4515
479.00,0.4445
478.00,0.4175
477.00,0.3849
476.00,0.3596
475.00,0.3532
474.00,0.3737
473.00,0.4171
472.00,0.4587
471.00,0.4630
470.00,0.4236
469.00,0.3671
468.00,0.3165
467.00,0.2790
466.00,0.2530
465.00,0.2347
464.00,0.2211
463.00,0.2098
462.00,0.1998
461.00,0.1910
460.00,0.1837
459.00,0.1773
458.00,0.1717
457.00,0.1668
456.00,0.1627
455.00,0.1595
454.00,0.1571
453.00,0.1551
452.00,0.1533
451.00,0.1514
450.00,0.1496
449.00,0.1479
448.00,0.1465
447.00,0.1454
446.00,0.1445
445.00,0.1437
444.00,0.1424
443.00,0.1407
442.00,0.1389
441.00,0.1374
440.00,0.1364
439.00,0.1357
438.00,0.1351
437.00,0.1346
436.00,0.1340
435.00,0.1334
434.00,0.1328
433.00,0.1324
432.00,0.1319
431.00,0.1310
430.00,0.1302
429.00,0.1298
428.00,0.1297
427.00,0.1295
426.00,0.1291
425.00,0.1284
424.00,0.1278
423.00,0.1274
422.00,0.1274
421.00,0.1275
420.00,0.1273
419.00,0.1271
418.00,0.1272
417.00,0.1273
416.00,0.1271
415.00,0.1264
414.00,0.1253
413.00,0.1240
412.00,0.1228
411.00,0.1220
410.00,0.1222
409.00,0.1228
408.00,0.1229
407.00,0.1225
406.00,0.1220
405.00,0.1217
404.00,0.1211
403.00,0.1204
402.00,0.1201
401.00,0.1200
400.00,0.1193
