Created as New Dataset,Sample 840 By YargerLab Date Saturday, April 18 2026
cm-1,A
4000.00,0.1144
3999.00,0.1147
3998.00,0.1150
3997.00,0.1153
3996.00,0.1158
3995.00,0.1164
3994.00,0.1172
3993.00,0.1181
3992.00,0.1191
3991.00,0.1200
3990.00,0.1207
3989.00,0.1212
3988.00,0.1214
3987.00,0.1214
3986.00,0.1211
3985.00,0.1206
3984.00,0.1199
3983.00,0.1193
3982.00,0.1187
3981.00,0.1182
3980.00,0.1178
3979.00,0.1174
3978.00,0.1172
3977.00,0.1169
3976.00,0.1166
3975.00,0.1163
3974.00,0.1159
3973.00,0.1156
3972.00,0.1152
3971.00,0.1150
3970.00,0.1148
3969.00,0.1147
3968.00,0.1146
3967.00,0.1146
3966.00,0.1146
3965.00,0.1146
3964.00,0.1146
3963.00,0.1148
3962.00,0.1150
3961.00,0.1153
3960.00,0.1157
3959.00,0.1161
3958.00,0.1164
3957.00,0.1165
3956.00,0.1164
3955.00,0.1162
3954.00,0.1159
3953.00,0.1156
3952.00,0.1154
3951.00,0.1153
3950.00,0.1151
3949.00,0.1150
3948.00,0.1149
3947.00,0.1147
3946.00,0.1147
3945.00,0.1147
3944.00,0.1148
3943.00,0.1150
3942.00,0.1151
3941.00,0.1153
3940.00,0.1153
3939.00,0.1153
3938.00,0.1151
3937.00,0.1148
3936.00,0.1145
3935.00,0.1142
3934.00,0.1140
3933.00,0.1139
3932.00,0.1137
3931.00,0.1135
3930.00,0.1132
3929.00,0.1130
3928.00,0.1128
3927.00,0.1126
3926.00,0.1125
3925.00,0.1124
3924.00,0.1122
3923.00,0.1120
3922.00,0.1118
3921.00,0.1118
3920.00,0.1117
3919.00,0.1117
3918.00,0.1118
3917.00,0.1118
3916.00,0.1117
3915.00,0.1117
3914.00,0.1118
3913.00,0.1118
3912.00,0.1119
3911.00,0.1120
3910.00,0.1120
3909.00,0.1120
3908.00,0.1119
3907.00,0.1119
3906.00,0.1119
3905.00,0.1120
3904.00,0.1120
3903.00,0.1122
3902.00,0.1124
3901.00,0.1128
3900.00,0.1131
3899.00,0.1133
3898.00,0.1133
3897.00,0.1133
3896.00,0.1133
3895.00,0.1133
3894.00,0.1134
3893.00,0.1135
3892.00,0.1135
3891.00,0.1134
3890.00,0.1131
3889.00,0.1128
3888.00,0.1127
3887.00,0.1128
3886.00,0.1127
3885.00,0.1126
3884.00,0.1124
3883.00,0.1126
3882.00,0.1129
3881.00,0.1131
3880.00,0.1131
3879.00,0.1128
3878.00,0.1125
3877.00,0.1124
3876.00,0.1124
3875.00,0.1123
3874.00,0.1120
3873.00,0.1117
3872.00,0.1116
3871.00,0.1117
3870.00,0.1117
3869.00,0.1115
3868.00,0.1114
3867.00,0.1115
3866.00,0.1117
3865.00,0.1119
3864.00,0.1120
3863.00,0.1120
3862.00,0.1121
3861.00,0.1123
3860.00,0.1125
3859.00,0.1127
3858.00,0.1128
3857.00,0.1129
3856.00,0.1132
3855.00,0.1140
3854.00,0.1151
3853.00,0.1159
3852.00,0.1164
3851.00,0.1168
3850.00,0.1173
3849.00,0.1177
3848.00,0.1178
3847.00,0.1176
3846.00,0.1172
3845.00,0.1167
3844.00,0.1161
3843.00,0.1154
3842.00,0.1148
3841.00,0.1142
3840.00,0.1138
3839.00,0.1135
3838.00,0.1132
3837.00,0.1131
3836.00,0.1130
3835.00,0.1131
3834.00,0.1133
3833.00,0.1135
3832.00,0.1137
3831.00,0.1137
3830.00,0.1136
3829.00,0.1136
3828.00,0.1136
3827.00,0.1135
3826.00,0.1131
3825.00,0.1127
3824.00,0.1124
3823.00,0.1124
3822.00,0.1125
3821.00,0.1124
3820.00,0.1120
3819.00,0.1118
3818.00,0.1120
3817.00,0.1123
3816.00,0.1124
3815.00,0.1123
3814.00,0.1123
3813.00,0.1124
3812.00,0.1126
3811.00,0.1127
3810.00,0.1127
3809.00,0.1129
3808.00,0.1133
3807.00,0.1137
3806.00,0.1139
3805.00,0.1141
3804.00,0.1144
3803.00,0.1147
3802.00,0.1149
3801.00,0.1147
3800.00,0.1144
3799.00,0.1143
3798.00,0.1143
3797.00,0.1144
3796.00,0.1141
3795.00,0.1138
3794.00,0.1135
3793.00,0.1133
3792.00,0.1131
3791.00,0.1129
3790.00,0.1127
3789.00,0.1126
3788.00,0.1125
3787.00,0.1125
3786.00,0.1125
3785.00,0.1125
3784.00,0.1124
3783.00,0.1123
3782.00,0.1123
3781.00,0.1123
3780.00,0.1123
3779.00,0.1121
3778.00,0.1119
3777.00,0.1118
3776.00,0.1118
3775.00,0.1117
3774.00,0.1116
3773.00,0.1115
3772.00,0.1114
3771.00,0.1113
3770.00,0.1112
3769.00,0.1110
3768.00,0.1108
3767.00,0.1108
3766.00,0.1109
3765.00,0.1108
3764.00,0.1106
3763.00,0.1105
3762.00,0.1104
3761.00,0.1104
3760.00,0.1103
3759.00,0.1102
3758.00,0.1101
3757.00,0.1099
3756.00,0.1097
3755.00,0.1095
3754.00,0.1093
3753.00,0.1091
3752.00,0.1089
3751.00,0.1089
3750.00,0.1089
3749.00,0.1087
3748.00,0.1086
3747.00,0.1087
3746.00,0.1091
3745.00,0.1094
3744.00,0.1094
3743.00,0.1092
3742.00,0.1092
3741.00,0.1095
3740.00,0.1097
3739.00,0.1096
3738.00,0.1095
3737.00,0.1095
3736.00,0.1095
3735.00,0.1095
3734.00,0.1095
3733.00,0.1096
3732.00,0.1096
3731.00,0.1097
3730.00,0.1097
3729.00,0.1099
3728.00,0.1102
3727.00,0.1103
3726.00,0.1103
3725.00,0.1104
3724.00,0.1105
3723.00,0.1106
3722.00,0.1106
3721.00,0.1106
3720.00,0.1104
3719.00,0.1103
3718.00,0.1102
3717.00,0.1100
3716.00,0.1099
3715.00,0.1097
3714.00,0.1097
3713.00,0.1097
3712.00,0.1099
3711.00,0.1099
3710.00,0.1099
3709.00,0.1099
3708.00,0.1099
3707.00,0.1098
3706.00,0.1098
3705.00,0.1097
3704.00,0.1097
3703.00,0.1097
3702.00,0.1097
3701.00,0.1096
3700.00,0.1095
3699.00,0.1095
3698.00,0.1095
3697.00,0.1095
3696.00,0.1095
3695.00,0.1094
3694.00,0.1092
3693.00,0.1091
3692.00,0.1089
3691.00,0.1088
3690.00,0.1088
3689.00,0.1089
3688.00,0.1091
3687.00,0.1092
3686.00,0.1094
3685.00,0.1096
3684.00,0.1097
3683.00,0.1097
3682.00,0.1096
3681.00,0.1095
3680.00,0.1093
3679.00,0.1090
3678.00,0.1089
3677.00,0.1091
3676.00,0.1095
3675.00,0.1096
3674.00,0.1096
3673.00,0.1096
3672.00,0.1100
3671.00,0.1103
3670.00,0.1103
3669.00,0.1102
3668.00,0.1100
3667.00,0.1099
3666.00,0.1099
3665.00,0.1099
3664.00,0.1098
3663.00,0.1097
3662.00,0.1097
3661.00,0.1096
3660.00,0.1097
3659.00,0.1098
3658.00,0.1101
3657.00,0.1105
3656.00,0.1108
3655.00,0.1108
3654.00,0.1108
3653.00,0.1108
3652.00,0.1107
3651.00,0.1105
3650.00,0.1103
3649.00,0.1102
3648.00,0.1101
3647.00,0.1099
3646.00,0.1099
3645.00,0.1098
3644.00,0.1099
3643.00,0.1099
3642.00,0.1098
3641.00,0.1097
3640.00,0.1096
3639.00,0.1094
3638.00,0.1092
3637.00,0.1091
3636.00,0.1090
3635.00,0.1089
3634.00,0.1088
3633.00,0.1085
3632.00,0.1084
3631.00,0.1084
3630.00,0.1088
3629.00,0.1093
3628.00,0.1096
3627.00,0.1098
3626.00,0.1101
3625.00,0.1103
3624.00,0.1103
3623.00,0.1101
3622.00,0.1098
3621.00,0.1095
3620.00,0.1093
3619.00,0.1091
3618.00,0.1090
3617.00,0.1088
3616.00,0.1089
3615.00,0.1089
3614.00,0.1089
3613.00,0.1088
3612.00,0.1087
3611.00,0.1087
3610.00,0.1087
3609.00,0.1089
3608.00,0.1089
3607.00,0.1089
3606.00,0.1088
3605.00,0.1088
3604.00,0.1088
3603.00,0.1088
3602.00,0.1089
3601.00,0.1089
3600.00,0.1090
3599.00,0.1090
3598.00,0.1091
3597.00,0.1092
3596.00,0.1093
3595.00,0.1094
3594.00,0.1094
3593.00,0.1093
3592.00,0.1091
3591.00,0.1090
3590.00,0.1089
3589.00,0.1089
3588.00,0.1089
3587.00,0.1090
3586.00,0.1089
3585.00,0.1089
3584.00,0.1090
3583.00,0.1092
3582.00,0.1094
3581.00,0.1096
3580.00,0.1098
3579.00,0.1100
3578.00,0.1102
3577.00,0.1105
3576.00,0.1107
3575.00,0.1109
3574.00,0.1109
3573.00,0.1109
3572.00,0.1107
3571.00,0.1106
3570.00,0.1105
3569.00,0.1106
3568.00,0.1108
3567.00,0.1110
3566.00,0.1112
3565.00,0.1113
3564.00,0.1114
3563.00,0.1116
3562.00,0.1117
3561.00,0.1117
3560.00,0.1116
3559.00,0.1115
3558.00,0.1113
3557.00,0.1110
3556.00,0.1108
3555.00,0.1106
3554.00,0.1104
3553.00,0.1103
3552.00,0.1102
3551.00,0.1100
3550.00,0.1100
3549.00,0.1099
3548.00,0.1099
3547.00,0.1098
3546.00,0.1098
3545.00,0.1098
3544.00,0.1097
3543.00,0.1098
3542.00,0.1098
3541.00,0.1099
3540.00,0.1099
3539.00,0.1100
3538.00,0.1100
3537.00,0.1099
3536.00,0.1099
3535.00,0.1099
3534.00,0.1098
3533.00,0.1098
3532.00,0.1098
3531.00,0.1098
3530.00,0.1098
3529.00,0.1098
3528.00,0.1097
3527.00,0.1096
3526.00,0.1096
3525.00,0.1095
3524.00,0.1095
3523.00,0.1094
3522.00,0.1093
3521.00,0.1093
3520.00,0.1093
3519.00,0.1093
3518.00,0.1094
3517.00,0.1095
3516.00,0.1096
3515.00,0.1096
3514.00,0.1096
3513.00,0.1096
3512.00,0.1095
3511.00,0.1094
3510.00,0.1093
3509.00,0.1092
3508.00,0.1091
3507.00,0.1089
3506.00,0.1088
3505.00,0.1088
3504.00,0.1088
3503.00,0.1088
3502.00,0.1087
3501.00,0.1087
3500.00,0.1087
3499.00,0.1086
3498.00,0.1086
3497.00,0.1085
3496.00,0.1085
3495.00,0.1085
3494.00,0.1085
3493.00,0.1085
3492.00,0.1086
3491.00,0.1086
3490.00,0.1086
3489.00,0.1086
3488.00,0.1086
3487.00,0.1086
3486.00,0.1086
3485.00,0.1085
3484.00,0.1085
3483.00,0.1085
3482.00,0.1085
3481.00,0.1085
3480.00,0.1086
3479.00,0.1086
3478.00,0.1086
3477.00,0.1087
3476.00,0.1087
3475.00,0.1087
3474.00,0.1087
3473.00,0.1087
3472.00,0.1087
3471.00,0.1086
3470.00,0.1086
3469.00,0.1086
3468.00,0.1085
3467.00,0.1086
3466.00,0.1086
3465.00,0.1086
3464.00,0.1086
3463.00,0.1086
3462.00,0.1086
3461.00,0.1086
3460.00,0.1087
3459.00,0.1087
3458.00,0.1086
3457.00,0.1086
3456.00,0.1086
3455.00,0.1086
3454.00,0.1085
3453.00,0.1085
3452.00,0.1085
3451.00,0.1084
3450.00,0.1084
3449.00,0.1084
3448.00,0.1084
3447.00,0.1084
3446.00,0.1084
3445.00,0.1084
3444.00,0.1084
3443.00,0.1084
3442.00,0.1084
3441.00,0.1083
3440.00,0.1083
3439.00,0.1083
3438.00,0.1082
3437.00,0.1082
3436.00,0.1082
3435.00,0.1082
3434.00,0.1082
3433.00,0.1082
3432.00,0.1082
3431.00,0.1081
3430.00,0.1081
3429.00,0.1081
3428.00,0.1081
3427.00,0.1081
3426.00,0.1081
3425.00,0.1082
3424.00,0.1083
3423.00,0.1085
3422.00,0.1086
3421.00,0.1088
3420.00,0.1089
3419.00,0.1090
3418.00,0.1091
3417.00,0.1091
3416.00,0.1091
3415.00,0.1090
3414.00,0.1089
3413.00,0.1088
3412.00,0.1087
3411.00,0.1086
3410.00,0.1085
3409.00,0.1084
3408.00,0.1084
3407.00,0.1083
3406.00,0.1083
3405.00,0.1082
3404.00,0.1082
3403.00,0.1082
3402.00,0.1082
3401.00,0.1082
3400.00,0.1082
3399.00,0.1083
3398.00,0.1083
3397.00,0.1083
3396.00,0.1083
3395.00,0.1083
3394.00,0.1083
3393.00,0.1083
3392.00,0.1082
3391.00,0.1082
3390.00,0.1082
3389.00,0.1081
3388.00,0.1081
3387.00,0.1081
3386.00,0.1080
3385.00,0.1080
3384.00,0.1080
3383.00,0.1079
3382.00,0.1079
3381.00,0.1079
3380.00,0.1079
3379.00,0.1079
3378.00,0.1080
3377.00,0.1080
3376.00,0.1080
3375.00,0.1080
3374.00,0.1080
3373.00,0.1080
3372.00,0.1080
3371.00,0.1080
3370.00,0.1080
3369.00,0.1081
3368.00,0.1082
3367.00,0.1082
3366.00,0.1083
3365.00,0.1083
3364.00,0.1084
3363.00,0.1084
3362.00,0.1084
3361.00,0.1084
3360.00,0.1083
3359.00,0.1083
3358.00,0.1083
3357.00,0.1083
3356.00,0.1082
3355.00,0.1082
3354.00,0.1081
3353.00,0.1081
3352.00,0.1081
3351.00,0.1080
3350.00,0.1080
3349.00,0.1080
3348.00,0.1079
3347.00,0.1079
3346.00,0.1079
3345.00,0.1079
3344.00,0.1079
3343.00,0.1078
3342.00,0.1078
3341.00,0.1078
3340.00,0.1078
3339.00,0.1078
3338.00,0.1078
3337.00,0.1079
3336.00,0.1079
3335.00,0.1079
3334.00,0.1079
3333.00,0.1079
3332.00,0.1079
3331.00,0.1079
3330.00,0.1079
3329.00,0.1079
3328.00,0.1079
3327.00,0.1079
3326.00,0.1079
3325.00,0.1079
3324.00,0.1079
3323.00,0.1079
3322.00,0.1079
3321.00,0.1079
3320.00,0.1079
3319.00,0.1079
3318.00,0.1079
3317.00,0.1078
3316.00,0.1078
3315.00,0.1078
3314.00,0.1078
3313.00,0.1078
3312.00,0.1078
3311.00,0.1077
3310.00,0.1077
3309.00,0.1077
3308.00,0.1077
3307.00,0.1077
3306.00,0.1077
3305.00,0.1078
3304.00,0.1078
3303.00,0.1078
3302.00,0.1078
3301.00,0.1079
3300.00,0.1079
3299.00,0.1079
3298.00,0.1079
3297.00,0.1078
3296.00,0.1078
3295.00,0.1078
3294.00,0.1078
3293.00,0.1078
3292.00,0.1078
3291.00,0.1079
3290.00,0.1079
3289.00,0.1079
3288.00,0.1079
3287.00,0.1078
3286.00,0.1078
3285.00,0.1078
3284.00,0.1078
3283.00,0.1078
3282.00,0.1077
3281.00,0.1077
3280.00,0.1077
3279.00,0.1077
3278.00,0.1077
3277.00,0.1076
3276.00,0.1076
3275.00,0.1076
3274.00,0.1076
3273.00,0.1076
3272.00,0.1077
3271.00,0.1077
3270.00,0.1077
3269.00,0.1078
3268.00,0.1078
3267.00,0.1079
3266.00,0.1079
3265.00,0.1079
3264.00,0.1079
3263.00,0.1078
3262.00,0.1078
3261.00,0.1077
3260.00,0.1076
3259.00,0.1075
3258.00,0.1074
3257.00,0.1074
3256.00,0.1074
3255.00,0.1073
3254.00,0.1073
3253.00,0.1073
3252.00,0.1073
3251.00,0.1073
3250.00,0.1073
3249.00,0.1073
3248.00,0.1073
3247.00,0.1073
3246.00,0.1073
3245.00,0.1073
3244.00,0.1073
3243.00,0.1073
3242.00,0.1073
3241.00,0.1072
3240.00,0.1072
3239.00,0.1072
3238.00,0.1071
3237.00,0.1071
3236.00,0.1071
3235.00,0.1070
3234.00,0.1070
3233.00,0.1069
3232.00,0.1069
3231.00,0.1069
3230.00,0.1069
3229.00,0.1069
3228.00,0.1070
3227.00,0.1071
3226.00,0.1072
3225.00,0.1074
3224.00,0.1077
3223.00,0.1082
3222.00,0.1088
3221.00,0.1096
3220.00,0.1104
3219.00,0.1109
3218.00,0.1112
3217.00,0.1112
3216.00,0.1108
3215.00,0.1103
3214.00,0.1098
3213.00,0.1093
3212.00,0.1088
3211.00,0.1085
3210.00,0.1082
3209.00,0.1080
3208.00,0.1078
3207.00,0.1076
3206.00,0.1075
3205.00,0.1074
3204.00,0.1073
3203.00,0.1072
3202.00,0.1071
3201.00,0.1071
3200.00,0.1070
3199.00,0.1070
3198.00,0.1070
3197.00,0.1070
3196.00,0.1070
3195.00,0.1069
3194.00,0.1069
3193.00,0.1069
3192.00,0.1070
3191.00,0.1071
3190.00,0.1073
3189.00,0.1075
3188.00,0.1077
3187.00,0.1079
3186.00,0.1079
3185.00,0.1079
3184.00,0.1078
3183.00,0.1077
3182.00,0.1076
3181.00,0.1075
3180.00,0.1074
3179.00,0.1073
3178.00,0.1073
3177.00,0.1073
3176.00,0.1073
3175.00,0.1074
3174.00,0.1075
3173.00,0.1078
3172.00,0.1081
3171.00,0.1084
3170.00,0.1087
3169.00,0.1088
3168.00,0.1088
3167.00,0.1085
3166.00,0.1082
3165.00,0.1079
3164.00,0.1076
3163.00,0.1074
3162.00,0.1073
3161.00,0.1072
3160.00,0.1071
3159.00,0.1071
3158.00,0.1070
3157.00,0.1069
3156.00,0.1069
3155.00,0.1068
3154.00,0.1067
3153.00,0.1067
3152.00,0.1066
3151.00,0.1066
3150.00,0.1066
3149.00,0.1067
3148.00,0.1067
3147.00,0.1067
3146.00,0.1066
3145.00,0.1066
3144.00,0.1065
3143.00,0.1065
3142.00,0.1064
3141.00,0.1064
3140.00,0.1064
3139.00,0.1064
3138.00,0.1064
3137.00,0.1064
3136.00,0.1064
3135.00,0.1064
3134.00,0.1064
3133.00,0.1063
3132.00,0.1063
3131.00,0.1063
3130.00,0.1064
3129.00,0.1064
3128.00,0.1064
3127.00,0.1063
3126.00,0.1061
3125.00,0.1059
3124.00,0.1057
3123.00,0.1055
3122.00,0.1053
3121.00,0.1052
3120.00,0.1052
3119.00,0.1051
3118.00,0.1051
3117.00,0.1050
3116.00,0.1050
3115.00,0.1050
3114.00,0.1050
3113.00,0.1049
3112.00,0.1049
3111.00,0.1048
3110.00,0.1048
3109.00,0.1048
3108.00,0.1048
3107.00,0.1049
3106.00,0.1050
3105.00,0.1053
3104.00,0.1056
3103.00,0.1062
3102.00,0.1070
3101.00,0.1082
3100.00,0.1098
3099.00,0.1117
3098.00,0.1138
3097.00,0.1154
3096.00,0.1163
3095.00,0.1164
3094.00,0.1161
3093.00,0.1158
3092.00,0.1162
3091.00,0.1176
3090.00,0.1202
3089.00,0.1234
3088.00,0.1264
3087.00,0.1285
3086.00,0.1295
3085.00,0.1296
3084.00,0.1290
3083.00,0.1280
3082.00,0.1265
3081.00,0.1246
3080.00,0.1224
3079.00,0.1201
3078.00,0.1179
3077.00,0.1160
3076.00,0.1144
3075.00,0.1131
3074.00,0.1122
3073.00,0.1120
3072.00,0.1128
3071.00,0.1148
3070.00,0.1179
3069.00,0.1215
3068.00,0.1255
3067.00,0.1306
3066.00,0.1382
3065.00,0.1491
3064.00,0.1619
3063.00,0.1737
3062.00,0.1813
3061.00,0.1837
3060.00,0.1825
3059.00,0.1803
3058.00,0.1790
3057.00,0.1795
3056.00,0.1818
3055.00,0.1851
3054.00,0.1892
3053.00,0.1944
3052.00,0.2006
3051.00,0.2072
3050.00,0.2121
3049.00,0.2130
3048.00,0.2086
3047.00,0.1998
3046.00,0.1891
3045.00,0.1788
3044.00,0.1706
3043.00,0.1648
3042.00,0.1609
3041.00,0.1578
3040.00,0.1547
3039.00,0.1510
3038.00,0.1470
3037.00,0.1435
3036.00,0.1414
3035.00,0.1417
3034.00,0.1446
3033.00,0.1496
3032.00,0.1557
3031.00,0.1613
3030.00,0.1653
3029.00,0.1671
3028.00,0.1668
3027.00,0.1649
3026.00,0.1618
3025.00,0.1583
3024.00,0.1549
3023.00,0.1518
3022.00,0.1492
3021.00,0.1467
3020.00,0.1442
3019.00,0.1417
3018.00,0.1392
3017.00,0.1370
3016.00,0.1351
3015.00,0.1337
3014.00,0.1326
3013.00,0.1319
3012.00,0.1315
3011.00,0.1314
3010.00,0.1319
3009.00,0.1330
3008.00,0.1352
3007.00,0.1386
3006.00,0.1429
3005.00,0.1473
3004.00,0.1507
3003.00,0.1522
3002.00,0.1515
3001.00,0.1492
3000.00,0.1460
2999.00,0.1428
2998.00,0.1400
2997.00,0.1376
2996.00,0.1357
2995.00,0.1340
2994.00,0.1326
2993.00,0.1313
2992.00,0.1301
2991.00,0.1290
2990.00,0.1280
2989.00,0.1271
2988.00,0.1264
2987.00,0.1259
2986.00,0.1255
2985.00,0.1252
2984.00,0.1250
2983.00,0.1248
2982.00,0.1245
2981.00,0.1242
2980.00,0.1239
2979.00,0.1236
2978.00,0.1232
2977.00,0.1228
2976.00,0.1225
2975.00,0.1222
2974.00,0.1221
2973.00,0.1222
2972.00,0.1226
2971.00,0.1231
2970.00,0.1238
2969.00,0.1246
2968.00,0.1255
2967.00,0.1264
2966.00,0.1273
2965.00,0.1280
2964.00,0.1283
2963.00,0.1282
2962.00,0.1277
2961.00,0.1271
2960.00,0.1264
2959.00,0.1258
2958.00,0.1253
2957.00,0.1251
2956.00,0.1251
2955.00,0.1251
2954.00,0.1252
2953.00,0.1251
2952.00,0.1249
2951.00,0.1247
2950.00,0.1247
2949.00,0.1251
2948.00,0.1258
2947.00,0.1263
2946.00,0.1264
2945.00,0.1259
2944.00,0.1250
2943.00,0.1240
2942.00,0.1230
2941.00,0.1223
2940.00,0.1219
2939.00,0.1218
2938.00,0.1219
2937.00,0.1223
2936.00,0.1227
2935.00,0.1229
2934.00,0.1230
2933.00,0.1228
2932.00,0.1224
2931.00,0.1220
2930.00,0.1217
2929.00,0.1215
2928.00,0.1215
2927.00,0.1215
2926.00,0.1216
2925.00,0.1215
2924.00,0.1212
2923.00,0.1207
2922.00,0.1200
2921.00,0.1193
2920.00,0.1186
2919.00,0.1181
2918.00,0.1176
2917.00,0.1172
2916.00,0.1168
2915.00,0.1165
2914.00,0.1162
2913.00,0.1160
2912.00,0.1158
2911.00,0.1156
2910.00,0.1154
2909.00,0.1152
2908.00,0.1150
2907.00,0.1149
2906.00,0.1148
2905.00,0.1147
2904.00,0.1147
2903.00,0.1148
2902.00,0.1149
2901.00,0.1150
2900.00,0.1151
2899.00,0.1152
2898.00,0.1152
2897.00,0.1152
2896.00,0.1150
2895.00,0.1148
2894.00,0.1146
2893.00,0.1145
2892.00,0.1144
2891.00,0.1144
2890.00,0.1143
2889.00,0.1143
2888.00,0.1144
2887.00,0.1145
2886.00,0.1147
2885.00,0.1148
2884.00,0.1148
2883.00,0.1147
2882.00,0.1145
2881.00,0.1144
2880.00,0.1142
2879.00,0.1140
2878.00,0.1139
2877.00,0.1138
2876.00,0.1137
2875.00,0.1136
2874.00,0.1135
2873.00,0.1134
2872.00,0.1134
2871.00,0.1134
2870.00,0.1133
2869.00,0.1133
2868.00,0.1132
2867.00,0.1131
2866.00,0.1130
2865.00,0.1129
2864.00,0.1129
2863.00,0.1128
2862.00,0.1127
2861.00,0.1127
2860.00,0.1127
2859.00,0.1128
2858.00,0.1129
2857.00,0.1131
2856.00,0.1132
2855.00,0.1134
2854.00,0.1136
2853.00,0.1139
2852.00,0.1142
2851.00,0.1145
2850.00,0.1149
2849.00,0.1153
2848.00,0.1155
2847.00,0.1157
2846.00,0.1157
2845.00,0.1157
2844.00,0.1155
2843.00,0.1152
2842.00,0.1149
2841.00,0.1146
2840.00,0.1144
2839.00,0.1144
2838.00,0.1147
2837.00,0.1151
2836.00,0.1156
2835.00,0.1159
2834.00,0.1159
2833.00,0.1157
2832.00,0.1152
2831.00,0.1147
2830.00,0.1143
2829.00,0.1139
2828.00,0.1135
2827.00,0.1133
2826.00,0.1131
2825.00,0.1129
2824.00,0.1128
2823.00,0.1127
2822.00,0.1127
2821.00,0.1126
2820.00,0.1126
2819.00,0.1126
2818.00,0.1125
2817.00,0.1124
2816.00,0.1123
2815.00,0.1122
2814.00,0.1122
2813.00,0.1121
2812.00,0.1121
2811.00,0.1121
2810.00,0.1121
2809.00,0.1122
2808.00,0.1122
2807.00,0.1123
2806.00,0.1123
2805.00,0.1123
2804.00,0.1122
2803.00,0.1121
2802.00,0.1119
2801.00,0.1118
2800.00,0.1117
2799.00,0.1116
2798.00,0.1115
2797.00,0.1114
2796.00,0.1114
2795.00,0.1114
2794.00,0.1113
2793.00,0.1114
2792.00,0.1114
2791.00,0.1115
2790.00,0.1117
2789.00,0.1118
2788.00,0.1120
2787.00,0.1121
2786.00,0.1121
2785.00,0.1121
2784.00,0.1120
2783.00,0.1119
2782.00,0.1118
2781.00,0.1116
2780.00,0.1115
2779.00,0.1113
2778.00,0.1111
2777.00,0.1109
2776.00,0.1107
2775.00,0.1106
2774.00,0.1105
2773.00,0.1105
2772.00,0.1106
2771.00,0.1106
2770.00,0.1106
2769.00,0.1106
2768.00,0.1106
2767.00,0.1106
2766.00,0.1106
2765.00,0.1106
2764.00,0.1106
2763.00,0.1106
2762.00,0.1106
2761.00,0.1107
2760.00,0.1108
2759.00,0.1109
2758.00,0.1110
2757.00,0.1112
2756.00,0.1114
2755.00,0.1115
2754.00,0.1116
2753.00,0.1116
2752.00,0.1116
2751.00,0.1116
2750.00,0.1115
2749.00,0.1114
2748.00,0.1114
2747.00,0.1113
2746.00,0.1113
2745.00,0.1114
2744.00,0.1116
2743.00,0.1119
2742.00,0.1122
2741.00,0.1123
2740.00,0.1123
2739.00,0.1122
2738.00,0.1122
2737.00,0.1121
2736.00,0.1121
2735.00,0.1122
2734.00,0.1124
2733.00,0.1125
2732.00,0.1126
2731.00,0.1127
2730.00,0.1126
2729.00,0.1125
2728.00,0.1123
2727.00,0.1120
2726.00,0.1118
2725.00,0.1115
2724.00,0.1114
2723.00,0.1112
2722.00,0.1112
2721.00,0.1112
2720.00,0.1112
2719.00,0.1114
2718.00,0.1116
2717.00,0.1119
2716.00,0.1121
2715.00,0.1122
2714.00,0.1121
2713.00,0.1120
2712.00,0.1118
2711.00,0.1115
2710.00,0.1114
2709.00,0.1112
2708.00,0.1111
2707.00,0.1110
2706.00,0.1109
2705.00,0.1109
2704.00,0.1108
2703.00,0.1107
2702.00,0.1106
2701.00,0.1105
2700.00,0.1105
2699.00,0.1104
2698.00,0.1103
2697.00,0.1103
2696.00,0.1102
2695.00,0.1102
2694.00,0.1101
2693.00,0.1101
2692.00,0.1100
2691.00,0.1100
2690.00,0.1100
2689.00,0.1100
2688.00,0.1100
2687.00,0.1100
2686.00,0.1100
2685.00,0.1100
2684.00,0.1100
2683.00,0.1100
2682.00,0.1100
2681.00,0.1100
2680.00,0.1100
2679.00,0.1100
2678.00,0.1100
2677.00,0.1101
2676.00,0.1102
2675.00,0.1104
2674.00,0.1105
2673.00,0.1106
2672.00,0.1107
2671.00,0.1108
2670.00,0.1109
2669.00,0.1109
2668.00,0.1109
2667.00,0.1109
2666.00,0.1108
2665.00,0.1108
2664.00,0.1107
2663.00,0.1106
2662.00,0.1105
2661.00,0.1104
2660.00,0.1104
2659.00,0.1103
2658.00,0.1103
2657.00,0.1103
2656.00,0.1104
2655.00,0.1105
2654.00,0.1106
2653.00,0.1108
2652.00,0.1110
2651.00,0.1110
2650.00,0.1109
2649.00,0.1107
2648.00,0.1103
2647.00,0.1100
2646.00,0.1098
2645.00,0.1095
2644.00,0.1094
2643.00,0.1093
2642.00,0.1092
2641.00,0.1091
2640.00,0.1091
2639.00,0.1091
2638.00,0.1091
2637.00,0.1092
2636.00,0.1093
2635.00,0.1095
2634.00,0.1097
2633.00,0.1097
2632.00,0.1097
2631.00,0.1096
2630.00,0.1094
2629.00,0.1093
2628.00,0.1091
2627.00,0.1089
2626.00,0.1088
2625.00,0.1086
2624.00,0.1085
2623.00,0.1084
2622.00,0.1083
2621.00,0.1082
2620.00,0.1081
2619.00,0.1081
2618.00,0.1080
2617.00,0.1080
2616.00,0.1080
2615.00,0.1079
2614.00,0.1078
2613.00,0.1078
2612.00,0.1077
2611.00,0.1077
2610.00,0.1078
2609.00,0.1079
2608.00,0.1080
2607.00,0.1081
2606.00,0.1083
2605.00,0.1085
2604.00,0.1087
2603.00,0.1088
2602.00,0.1090
2601.00,0.1091
2600.00,0.1091
2599.00,0.1091
2598.00,0.1091
2597.00,0.1090
2596.00,0.1089
2595.00,0.1089
2594.00,0.1088
2593.00,0.1088
2592.00,0.1087
2591.00,0.1087
2590.00,0.1086
2589.00,0.1086
2588.00,0.1087
2587.00,0.1087
2586.00,0.1088
2585.00,0.1088
2584.00,0.1088
2583.00,0.1087
2582.00,0.1086
2581.00,0.1084
2580.00,0.1083
2579.00,0.1081
2578.00,0.1080
2577.00,0.1079
2576.00,0.1079
2575.00,0.1078
2574.00,0.1077
2573.00,0.1077
2572.00,0.1076
2571.00,0.1075
2570.00,0.1074
2569.00,0.1072
2568.00,0.1071
2567.00,0.1070
2566.00,0.1069
2565.00,0.1068
2564.00,0.1067
2563.00,0.1067
2562.00,0.1066
2561.00,0.1066
2560.00,0.1067
2559.00,0.1067
2558.00,0.1068
2557.00,0.1068
2556.00,0.1069
2555.00,0.1070
2554.00,0.1071
2553.00,0.1072
2552.00,0.1073
2551.00,0.1073
2550.00,0.1073
2549.00,0.1074
2548.00,0.1074
2547.00,0.1075
2546.00,0.1075
2545.00,0.1075
2544.00,0.1074
2543.00,0.1074
2542.00,0.1074
2541.00,0.1074
2540.00,0.1074
2539.00,0.1076
2538.00,0.1077
2537.00,0.1079
2536.00,0.1081
2535.00,0.1082
2534.00,0.1084
2533.00,0.1086
2532.00,0.1089
2531.00,0.1091
2530.00,0.1091
2529.00,0.1088
2528.00,0.1084
2527.00,0.1080
2526.00,0.1078
2525.00,0.1077
2524.00,0.1078
2523.00,0.1079
2522.00,0.1080
2521.00,0.1081
2520.00,0.1082
2519.00,0.1081
2518.00,0.1081
2517.00,0.1080
2516.00,0.1080
2515.00,0.1080
2514.00,0.1079
2513.00,0.1078
2512.00,0.1077
2511.00,0.1077
2510.00,0.1077
2509.00,0.1076
2508.00,0.1075
2507.00,0.1074
2506.00,0.1072
2505.00,0.1071
2504.00,0.1070
2503.00,0.1069
2502.00,0.1069
2501.00,0.1068
2500.00,0.1068
2499.00,0.1067
2498.00,0.1067
2497.00,0.1067
2496.00,0.1067
2495.00,0.1067
2494.00,0.1067
2493.00,0.1067
2492.00,0.1066
2491.00,0.1066
2490.00,0.1066
2489.00,0.1066
2488.00,0.1066
2487.00,0.1065
2486.00,0.1065
2485.00,0.1064
2484.00,0.1064
2483.00,0.1063
2482.00,0.1062
2481.00,0.1062
2480.00,0.1062
2479.00,0.1062
2478.00,0.1062
2477.00,0.1063
2476.00,0.1064
2475.00,0.1066
2474.00,0.1067
2473.00,0.1068
2472.00,0.1069
2471.00,0.1070
2470.00,0.1071
2469.00,0.1072
2468.00,0.1073
2467.00,0.1074
2466.00,0.1074
2465.00,0.1074
2464.00,0.1073
2463.00,0.1072
2462.00,0.1071
2461.00,0.1069
2460.00,0.1068
2459.00,0.1068
2458.00,0.1069
2457.00,0.1070
2456.00,0.1071
2455.00,0.1072
2454.00,0.1072
2453.00,0.1072
2452.00,0.1071
2451.00,0.1070
2450.00,0.1069
2449.00,0.1068
2448.00,0.1066
2447.00,0.1065
2446.00,0.1065
2445.00,0.1065
2444.00,0.1066
2443.00,0.1069
2442.00,0.1071
2441.00,0.1074
2440.00,0.1076
2439.00,0.1078
2438.00,0.1080
2437.00,0.1081
2436.00,0.1080
2435.00,0.1079
2434.00,0.1077
2433.00,0.1075
2432.00,0.1074
2431.00,0.1074
2430.00,0.1076
2429.00,0.1079
2428.00,0.1084
2427.00,0.1092
2426.00,0.1102
2425.00,0.1114
2424.00,0.1127
2423.00,0.1137
2422.00,0.1142
2421.00,0.1140
2420.00,0.1134
2419.00,0.1126
2418.00,0.1118
2417.00,0.1112
2416.00,0.1108
2415.00,0.1106
2414.00,0.1105
2413.00,0.1103
2412.00,0.1101
2411.00,0.1098
2410.00,0.1095
2409.00,0.1091
2408.00,0.1088
2407.00,0.1085
2406.00,0.1083
2405.00,0.1080
2404.00,0.1078
2403.00,0.1075
2402.00,0.1073
2401.00,0.1070
2400.00,0.1068
2399.00,0.1066
2398.00,0.1064
2397.00,0.1063
2396.00,0.1063
2395.00,0.1063
2394.00,0.1063
2393.00,0.1063
2392.00,0.1064
2391.00,0.1065
2390.00,0.1066
2389.00,0.1067
2388.00,0.1069
2387.00,0.1071
2386.00,0.1075
2385.00,0.1079
2384.00,0.1083
2383.00,0.1086
2382.00,0.1087
2381.00,0.1086
2380.00,0.1084
2379.00,0.1084
2378.00,0.1084
2377.00,0.1087
2376.00,0.1091
2375.00,0.1095
2374.00,0.1098
2373.00,0.1100
2372.00,0.1100
2371.00,0.1099
2370.00,0.1096
2369.00,0.1094
2368.00,0.1092
2367.00,0.1091
2366.00,0.1090
2365.00,0.1091
2364.00,0.1092
2363.00,0.1093
2362.00,0.1093
2361.00,0.1094
2360.00,0.1096
2359.00,0.1098
2358.00,0.1100
2357.00,0.1103
2356.00,0.1105
2355.00,0.1107
2354.00,0.1110
2353.00,0.1114
2352.00,0.1115
2351.00,0.1112
2350.00,0.1106
2349.00,0.1103
2348.00,0.1102
2347.00,0.1102
2346.00,0.1102
2345.00,0.1100
2344.00,0.1097
2343.00,0.1094
2342.00,0.1094
2341.00,0.1095
2340.00,0.1096
2339.00,0.1098
2338.00,0.1101
2337.00,0.1104
2336.00,0.1104
2335.00,0.1102
2334.00,0.1100
2333.00,0.1099
2332.00,0.1100
2331.00,0.1102
2330.00,0.1103
2329.00,0.1104
2328.00,0.1105
2327.00,0.1104
2326.00,0.1103
2325.00,0.1100
2324.00,0.1098
2323.00,0.1097
2322.00,0.1096
2321.00,0.1097
2320.00,0.1097
2319.00,0.1096
2318.00,0.1093
2317.00,0.1089
2316.00,0.1084
2315.00,0.1081
2314.00,0.1080
2313.00,0.1079
2312.00,0.1079
2311.00,0.1079
2310.00,0.1081
2309.00,0.1084
2308.00,0.1089
2307.00,0.1095
2306.00,0.1099
2305.00,0.1102
2304.00,0.1101
2303.00,0.1099
2302.00,0.1095
2301.00,0.1093
2300.00,0.1091
2299.00,0.1092
2298.00,0.1094
2297.00,0.1099
2296.00,0.1103
2295.00,0.1107
2294.00,0.1110
2293.00,0.1112
2292.00,0.1113
2291.00,0.1117
2290.00,0.1121
2289.00,0.1124
2288.00,0.1125
2287.00,0.1123
2286.00,0.1117
2285.00,0.1109
2284.00,0.1100
2283.00,0.1091
2282.00,0.1084
2281.00,0.1078
2280.00,0.1074
2279.00,0.1072
2278.00,0.1072
2277.00,0.1074
2276.00,0.1076
2275.00,0.1078
2274.00,0.1078
2273.00,0.1078
2272.00,0.1077
2271.00,0.1076
2270.00,0.1074
2269.00,0.1071
2268.00,0.1068
2267.00,0.1066
2266.00,0.1063
2265.00,0.1060
2264.00,0.1058
2263.00,0.1057
2262.00,0.1056
2261.00,0.1056
2260.00,0.1056
2259.00,0.1056
2258.00,0.1055
2257.00,0.1054
2256.00,0.1054
2255.00,0.1057
2254.00,0.1062
2253.00,0.1068
2252.00,0.1072
2251.00,0.1071
2250.00,0.1068
2249.00,0.1062
2248.00,0.1056
2247.00,0.1053
2246.00,0.1051
2245.00,0.1051
2244.00,0.1051
2243.00,0.1051
2242.00,0.1050
2241.00,0.1048
2240.00,0.1047
2239.00,0.1047
2238.00,0.1047
2237.00,0.1048
2236.00,0.1049
2235.00,0.1050
2234.00,0.1050
2233.00,0.1049
2232.00,0.1048
2231.00,0.1047
2230.00,0.1045
2229.00,0.1044
2228.00,0.1044
2227.00,0.1043
2226.00,0.1041
2225.00,0.1039
2224.00,0.1038
2223.00,0.1037
2222.00,0.1037
2221.00,0.1036
2220.00,0.1036
2219.00,0.1036
2218.00,0.1035
2217.00,0.1035
2216.00,0.1035
2215.00,0.1035
2214.00,0.1035
2213.00,0.1035
2212.00,0.1036
2211.00,0.1037
2210.00,0.1038
2209.00,0.1038
2208.00,0.1038
2207.00,0.1037
2206.00,0.1036
2205.00,0.1034
2204.00,0.1033
2203.00,0.1032
2202.00,0.1031
2201.00,0.1032
2200.00,0.1033
2199.00,0.1034
2198.00,0.1035
2197.00,0.1035
2196.00,0.1035
2195.00,0.1035
2194.00,0.1034
2193.00,0.1034
2192.00,0.1032
2191.00,0.1031
2190.00,0.1030
2189.00,0.1030
2188.00,0.1031
2187.00,0.1031
2186.00,0.1030
2185.00,0.1028
2184.00,0.1026
2183.00,0.1024
2182.00,0.1021
2181.00,0.1019
2180.00,0.1018
2179.00,0.1019
2178.00,0.1021
2177.00,0.1023
2176.00,0.1025
2175.00,0.1028
2174.00,0.1031
2173.00,0.1035
2172.00,0.1038
2171.00,0.1040
2170.00,0.1041
2169.00,0.1041
2168.00,0.1041
2167.00,0.1040
2166.00,0.1039
2165.00,0.1040
2164.00,0.1042
2163.00,0.1042
2162.00,0.1038
2161.00,0.1029
2160.00,0.1018
2159.00,0.1010
2158.00,0.1006
2157.00,0.1008
2156.00,0.1013
2155.00,0.1019
2154.00,0.1022
2153.00,0.1024
2152.00,0.1024
2151.00,0.1023
2150.00,0.1022
2149.00,0.1021
2148.00,0.1021
2147.00,0.1021
2146.00,0.1020
2145.00,0.1020
2144.00,0.1020
2143.00,0.1021
2142.00,0.1021
2141.00,0.1020
2140.00,0.1019
2139.00,0.1018
2138.00,0.1016
2137.00,0.1014
2136.00,0.1012
2135.00,0.1011
2134.00,0.1011
2133.00,0.1013
2132.00,0.1015
2131.00,0.1017
2130.00,0.1019
2129.00,0.1020
2128.00,0.1021
2127.00,0.1022
2126.00,0.1024
2125.00,0.1026
2124.00,0.1027
2123.00,0.1028
2122.00,0.1028
2121.00,0.1028
2120.00,0.1028
2119.00,0.1028
2118.00,0.1029
2117.00,0.1030
2116.00,0.1031
2115.00,0.1032
2114.00,0.1033
2113.00,0.1033
2112.00,0.1034
2111.00,0.1034
2110.00,0.1034
2109.00,0.1035
2108.00,0.1036
2107.00,0.1037
2106.00,0.1039
2105.00,0.1040
2104.00,0.1042
2103.00,0.1042
2102.00,0.1040
2101.00,0.1037
2100.00,0.1033
2099.00,0.1028
2098.00,0.1024
2097.00,0.1021
2096.00,0.1019
2095.00,0.1020
2094.00,0.1021
2093.00,0.1022
2092.00,0.1023
2091.00,0.1025
2090.00,0.1026
2089.00,0.1026
2088.00,0.1027
2087.00,0.1027
2086.00,0.1028
2085.00,0.1028
2084.00,0.1029
2083.00,0.1031
2082.00,0.1034
2081.00,0.1037
2080.00,0.1040
2079.00,0.1042
2078.00,0.1043
2077.00,0.1042
2076.00,0.1041
2075.00,0.1038
2074.00,0.1035
2073.00,0.1032
2072.00,0.1029
2071.00,0.1027
2070.00,0.1026
2069.00,0.1026
2068.00,0.1026
2067.00,0.1027
2066.00,0.1028
2065.00,0.1028
2064.00,0.1028
2063.00,0.1028
2062.00,0.1027
2061.00,0.1026
2060.00,0.1025
2059.00,0.1024
2058.00,0.1022
2057.00,0.1020
2056.00,0.1019
2055.00,0.1018
2054.00,0.1019
2053.00,0.1021
2052.00,0.1022
2051.00,0.1020
2050.00,0.1017
2049.00,0.1014
2048.00,0.1013
2047.00,0.1014
2046.00,0.1014
2045.00,0.1014
2044.00,0.1016
2043.00,0.1019
2042.00,0.1024
2041.00,0.1028
2040.00,0.1031
2039.00,0.1032
2038.00,0.1031
2037.00,0.1031
2036.00,0.1031
2035.00,0.1031
2034.00,0.1030
2033.00,0.1029
2032.00,0.1028
2031.00,0.1027
2030.00,0.1027
2029.00,0.1027
2028.00,0.1027
2027.00,0.1028
2026.00,0.1026
2025.00,0.1024
2024.00,0.1023
2023.00,0.1020
2022.00,0.1017
2021.00,0.1014
2020.00,0.1011
2019.00,0.1007
2018.00,0.1002
2017.00,0.0998
2016.00,0.0994
2015.00,0.0990
2014.00,0.0986
2013.00,0.0983
2012.00,0.0980
2011.00,0.0979
2010.00,0.0979
2009.00,0.0980
2008.00,0.0983
2007.00,0.0987
2006.00,0.0990
2005.00,0.0992
2004.00,0.0994
2003.00,0.0996
2002.00,0.0999
2001.00,0.1004
2000.00,0.1010
1999.00,0.1016
1998.00,0.1020
1997.00,0.1020
1996.00,0.1018
1995.00,0.1017
1994.00,0.1017
1993.00,0.1019
1992.00,0.1025
1991.00,0.1033
1990.00,0.1039
1989.00,0.1044
1988.00,0.1045
1987.00,0.1042
1986.00,0.1038
1985.00,0.1032
1984.00,0.1028
1983.00,0.1025
1982.00,0.1022
1981.00,0.1019
1980.00,0.1015
1979.00,0.1011
1978.00,0.1006
1977.00,0.1003
1976.00,0.1001
1975.00,0.1001
1974.00,0.1001
1973.00,0.1001
1972.00,0.1003
1971.00,0.1004
1970.00,0.1007
1969.00,0.1009
1968.00,0.1013
1967.00,0.1018
1966.00,0.1024
1965.00,0.1030
1964.00,0.1038
1963.00,0.1051
1962.00,0.1070
1961.00,0.1101
1960.00,0.1146
1959.00,0.1205
1958.00,0.1272
1957.00,0.1333
1956.00,0.1375
1955.00,0.1390
1954.00,0.1379
1953.00,0.1351
1952.00,0.1317
1951.00,0.1285
1950.00,0.1261
1949.00,0.1245
1948.00,0.1237
1947.00,0.1237
1946.00,0.1241
1945.00,0.1247
1944.00,0.1252
1943.00,0.1254
1942.00,0.1251
1941.00,0.1242
1940.00,0.1230
1939.00,0.1213
1938.00,0.1193
1937.00,0.1171
1936.00,0.1150
1935.00,0.1133
1934.00,0.1119
1933.00,0.1110
1932.00,0.1106
1931.00,0.1105
1930.00,0.1108
1929.00,0.1115
1928.00,0.1125
1927.00,0.1138
1926.00,0.1155
1925.00,0.1173
1924.00,0.1191
1923.00,0.1204
1922.00,0.1208
1921.00,0.1204
1920.00,0.1192
1919.00,0.1179
1918.00,0.1167
1917.00,0.1160
1916.00,0.1161
1915.00,0.1171
1914.00,0.1188
1913.00,0.1213
1912.00,0.1244
1911.00,0.1280
1910.00,0.1316
1909.00,0.1344
1908.00,0.1358
1907.00,0.1355
1906.00,0.1337
1905.00,0.1310
1904.00,0.1281
1903.00,0.1252
1902.00,0.1226
1901.00,0.1202
1900.00,0.1181
1899.00,0.1164
1898.00,0.1149
1897.00,0.1137
1896.00,0.1127
1895.00,0.1117
1894.00,0.1108
1893.00,0.1100
1892.00,0.1094
1891.00,0.1088
1890.00,0.1083
1889.00,0.1078
1888.00,0.1074
1887.00,0.1070
1886.00,0.1067
1885.00,0.1064
1884.00,0.1062
1883.00,0.1060
1882.00,0.1058
1881.00,0.1056
1880.00,0.1054
1879.00,0.1053
1878.00,0.1052
1877.00,0.1051
1876.00,0.1050
1875.00,0.1051
1874.00,0.1052
1873.00,0.1053
1872.00,0.1056
1871.00,0.1060
1870.00,0.1066
1869.00,0.1073
1868.00,0.1083
1867.00,0.1095
1866.00,0.1108
1865.00,0.1121
1864.00,0.1136
1863.00,0.1153
1862.00,0.1170
1861.00,0.1190
1860.00,0.1211
1859.00,0.1233
1858.00,0.1253
1857.00,0.1266
1856.00,0.1269
1855.00,0.1260
1854.00,0.1242
1853.00,0.1221
1852.00,0.1203
1851.00,0.1190
1850.00,0.1185
1849.00,0.1185
1848.00,0.1189
1847.00,0.1197
1846.00,0.1208
1845.00,0.1219
1844.00,0.1225
1843.00,0.1223
1842.00,0.1213
1841.00,0.1195
1840.00,0.1174
1839.00,0.1153
1838.00,0.1134
1837.00,0.1118
1836.00,0.1106
1835.00,0.1097
1834.00,0.1090
1833.00,0.1086
1832.00,0.1085
1831.00,0.1086
1830.00,0.1089
1829.00,0.1096
1828.00,0.1107
1827.00,0.1124
1826.00,0.1145
1825.00,0.1167
1824.00,0.1188
1823.00,0.1207
1822.00,0.1224
1821.00,0.1240
1820.00,0.1256
1819.00,0.1272
1818.00,0.1285
1817.00,0.1292
1816.00,0.1288
1815.00,0.1274
1814.00,0.1253
1813.00,0.1228
1812.00,0.1203
1811.00,0.1180
1810.00,0.1161
1809.00,0.1144
1808.00,0.1131
1807.00,0.1120
1806.00,0.1111
1805.00,0.1104
1804.00,0.1098
1803.00,0.1094
1802.00,0.1090
1801.00,0.1086
1800.00,0.1083
1799.00,0.1080
1798.00,0.1080
1797.00,0.1081
1796.00,0.1084
1795.00,0.1089
1794.00,0.1097
1793.00,0.1108
1792.00,0.1123
1791.00,0.1138
1790.00,0.1154
1789.00,0.1170
1788.00,0.1187
1787.00,0.1203
1786.00,0.1217
1785.00,0.1225
1784.00,0.1226
1783.00,0.1219
1782.00,0.1205
1781.00,0.1187
1780.00,0.1168
1779.00,0.1151
1778.00,0.1138
1777.00,0.1129
1776.00,0.1121
1775.00,0.1116
1774.00,0.1111
1773.00,0.1107
1772.00,0.1104
1771.00,0.1101
1770.00,0.1099
1769.00,0.1098
1768.00,0.1097
1767.00,0.1094
1766.00,0.1091
1765.00,0.1088
1764.00,0.1085
1763.00,0.1082
1762.00,0.1078
1761.00,0.1074
1760.00,0.1071
1759.00,0.1070
1758.00,0.1070
1757.00,0.1069
1756.00,0.1068
1755.00,0.1069
1754.00,0.1073
1753.00,0.1079
1752.00,0.1089
1751.00,0.1102
1750.00,0.1118
1749.00,0.1135
1748.00,0.1154
1747.00,0.1175
1746.00,0.1196
1745.00,0.1218
1744.00,0.1238
1743.00,0.1259
1742.00,0.1283
1741.00,0.1317
1740.00,0.1360
1739.00,0.1402
1738.00,0.1433
1737.00,0.1449
1736.00,0.1450
1735.00,0.1438
1734.00,0.1415
1733.00,0.1387
1732.00,0.1363
1731.00,0.1342
1730.00,0.1321
1729.00,0.1300
1728.00,0.1282
1727.00,0.1269
1726.00,0.1260
1725.00,0.1253
1724.00,0.1248
1723.00,0.1245
1722.00,0.1242
1721.00,0.1240
1720.00,0.1240
1719.00,0.1243
1718.00,0.1248
1717.00,0.1250
1716.00,0.1244
1715.00,0.1230
1714.00,0.1211
1713.00,0.1192
1712.00,0.1174
1711.00,0.1160
1710.00,0.1148
1709.00,0.1139
1708.00,0.1133
1707.00,0.1128
1706.00,0.1124
1705.00,0.1120
1704.00,0.1118
1703.00,0.1116
1702.00,0.1115
1701.00,0.1115
1700.00,0.1117
1699.00,0.1120
1698.00,0.1128
1697.00,0.1140
1696.00,0.1155
1695.00,0.1169
1694.00,0.1183
1693.00,0.1198
1692.00,0.1211
1691.00,0.1223
1690.00,0.1234
1689.00,0.1242
1688.00,0.1249
1687.00,0.1254
1686.00,0.1258
1685.00,0.1260
1684.00,0.1259
1683.00,0.1255
1682.00,0.1250
1681.00,0.1247
1680.00,0.1244
1679.00,0.1242
1678.00,0.1242
1677.00,0.1245
1676.00,0.1253
1675.00,0.1264
1674.00,0.1272
1673.00,0.1276
1672.00,0.1274
1671.00,0.1267
1670.00,0.1252
1669.00,0.1232
1668.00,0.1211
1667.00,0.1192
1666.00,0.1176
1665.00,0.1160
1664.00,0.1145
1663.00,0.1132
1662.00,0.1120
1661.00,0.1111
1660.00,0.1105
1659.00,0.1100
1658.00,0.1095
1657.00,0.1091
1656.00,0.1086
1655.00,0.1084
1654.00,0.1085
1653.00,0.1088
1652.00,0.1088
1651.00,0.1091
1650.00,0.1094
1649.00,0.1094
1648.00,0.1090
1647.00,0.1086
1646.00,0.1082
1645.00,0.1079
1644.00,0.1080
1643.00,0.1082
1642.00,0.1085
1641.00,0.1087
1640.00,0.1089
1639.00,0.1091
1638.00,0.1092
1637.00,0.1092
1636.00,0.1092
1635.00,0.1089
1634.00,0.1084
1633.00,0.1078
1632.00,0.1073
1631.00,0.1068
1630.00,0.1063
1629.00,0.1058
1628.00,0.1054
1627.00,0.1051
1626.00,0.1049
1625.00,0.1047
1624.00,0.1045
1623.00,0.1043
1622.00,0.1041
1621.00,0.1039
1620.00,0.1037
1619.00,0.1037
1618.00,0.1037
1617.00,0.1038
1616.00,0.1040
1615.00,0.1044
1614.00,0.1047
1613.00,0.1050
1612.00,0.1051
1611.00,0.1054
1610.00,0.1057
1609.00,0.1061
1608.00,0.1065
1607.00,0.1071
1606.00,0.1075
1605.00,0.1076
1604.00,0.1072
1603.00,0.1067
1602.00,0.1059
1601.00,0.1048
1600.00,0.1036
1599.00,0.1029
1598.00,0.1046
1597.00,0.1133
1596.00,0.1347
1595.00,0.1703
1594.00,0.2108
1593.00,0.2372
1592.00,0.2363
1591.00,0.2145
1590.00,0.1887
1589.00,0.1696
1588.00,0.1578
1587.00,0.1493
1586.00,0.1412
1585.00,0.1335
1584.00,0.1272
1583.00,0.1227
1582.00,0.1198
1581.00,0.1180
1580.00,0.1167
1579.00,0.1154
1578.00,0.1145
1577.00,0.1139
1576.00,0.1140
1575.00,0.1146
1574.00,0.1159
1573.00,0.1178
1572.00,0.1203
1571.00,0.1236
1570.00,0.1275
1569.00,0.1313
1568.00,0.1339
1567.00,0.1349
1566.00,0.1342
1565.00,0.1325
1564.00,0.1304
1563.00,0.1285
1562.00,0.1269
1561.00,0.1254
1560.00,0.1238
1559.00,0.1218
1558.00,0.1194
1557.00,0.1177
1556.00,0.1168
1555.00,0.1157
1554.00,0.1142
1553.00,0.1123
1552.00,0.1107
1551.00,0.1092
1550.00,0.1079
1549.00,0.1068
1548.00,0.1059
1547.00,0.1053
1546.00,0.1048
1545.00,0.1043
1544.00,0.1038
1543.00,0.1032
1542.00,0.1026
1541.00,0.1020
1540.00,0.1015
1539.00,0.1009
1538.00,0.1005
1537.00,0.1003
1536.00,0.1001
1535.00,0.0997
1534.00,0.0991
1533.00,0.0984
1532.00,0.0979
1531.00,0.0974
1530.00,0.0970
1529.00,0.0964
1528.00,0.0959
1527.00,0.0955
1526.00,0.0959
1525.00,0.0982
1524.00,0.1037
1523.00,0.1131
1522.00,0.1251
1521.00,0.1354
1520.00,0.1399
1519.00,0.1388
1518.00,0.1343
1517.00,0.1280
1516.00,0.1213
1515.00,0.1164
1514.00,0.1156
1513.00,0.1202
1512.00,0.1297
1511.00,0.1408
1510.00,0.1494
1509.00,0.1543
1508.00,0.1601
1507.00,0.1756
1506.00,0.2027
1505.00,0.2302
1504.00,0.2465
1503.00,0.2493
1502.00,0.2423
1501.00,0.2300
1500.00,0.2154
1499.00,0.2004
1498.00,0.1859
1497.00,0.1726
1496.00,0.1616
1495.00,0.1535
1494.00,0.1479
1493.00,0.1439
1492.00,0.1408
1491.00,0.1381
1490.00,0.1358
1489.00,0.1339
1488.00,0.1322
1487.00,0.1306
1486.00,0.1292
1485.00,0.1279
1484.00,0.1267
1483.00,0.1257
1482.00,0.1248
1481.00,0.1240
1480.00,0.1233
1479.00,0.1227
1478.00,0.1221
1477.00,0.1216
1476.00,0.1212
1475.00,0.1207
1474.00,0.1203
1473.00,0.1199
1472.00,0.1195
1471.00,0.1191
1470.00,0.1189
1469.00,0.1187
1468.00,0.1186
1467.00,0.1184
1466.00,0.1181
1465.00,0.1178
1464.00,0.1175
1463.00,0.1173
1462.00,0.1171
1461.00,0.1169
1460.00,0.1167
1459.00,0.1165
1458.00,0.1163
1457.00,0.1162
1456.00,0.1161
1455.00,0.1161
1454.00,0.1161
1453.00,0.1161
1452.00,0.1162
1451.00,0.1165
1450.00,0.1171
1449.00,0.1181
1448.00,0.1199
1447.00,0.1221
1446.00,0.1243
1445.00,0.1259
1444.00,0.1266
1443.00,0.1261
1442.00,0.1246
1441.00,0.1229
1440.00,0.1215
1439.00,0.1206
1438.00,0.1201
1437.00,0.1203
1436.00,0.1210
1435.00,0.1220
1434.00,0.1229
1433.00,0.1235
1432.00,0.1238
1431.00,0.1236
1430.00,0.1229
1429.00,0.1218
1428.00,0.1207
1427.00,0.1197
1426.00,0.1185
1425.00,0.1175
1424.00,0.1166
1423.00,0.1158
1422.00,0.1151
1421.00,0.1144
1420.00,0.1141
1419.00,0.1138
1418.00,0.1135
1417.00,0.1131
1416.00,0.1128
1415.00,0.1125
1414.00,0.1121
1413.00,0.1117
1412.00,0.1115
1411.00,0.1113
1410.00,0.1110
1409.00,0.1106
1408.00,0.1105
1407.00,0.1104
1406.00,0.1103
1405.00,0.1100
1404.00,0.1099
1403.00,0.1098
1402.00,0.1096
1401.00,0.1094
1400.00,0.1094
1399.00,0.1094
1398.00,0.1093
1397.00,0.1093
1396.00,0.1101
1395.00,0.1130
1394.00,0.1214
1393.00,0.1406
1392.00,0.1724
1391.00,0.2109
1390.00,0.2416
1389.00,0.2509
1388.00,0.2393
1387.00,0.2205
1386.00,0.2056
1385.00,0.1951
1384.00,0.1850
1383.00,0.1732
1382.00,0.1612
1381.00,0.1506
1380.00,0.1419
1379.00,0.1352
1378.00,0.1303
1377.00,0.1268
1376.00,0.1243
1375.00,0.1229
1374.00,0.1226
1373.00,0.1232
1372.00,0.1243
1371.00,0.1261
1370.00,0.1287
1369.00,0.1318
1368.00,0.1348
1367.00,0.1376
1366.00,0.1407
1365.00,0.1452
1364.00,0.1513
1363.00,0.1575
1362.00,0.1606
1361.00,0.1583
1360.00,0.1515
1359.00,0.1436
1358.00,0.1372
1357.00,0.1330
1356.00,0.1305
1355.00,0.1290
1354.00,0.1283
1353.00,0.1281
1352.00,0.1282
1351.00,0.1283
1350.00,0.1281
1349.00,0.1273
1348.00,0.1257
1347.00,0.1236
1346.00,0.1215
1345.00,0.1195
1344.00,0.1178
1343.00,0.1165
1342.00,0.1156
1341.00,0.1149
1340.00,0.1145
1339.00,0.1140
1338.00,0.1136
1337.00,0.1131
1336.00,0.1126
1335.00,0.1121
1334.00,0.1118
1333.00,0.1115
1332.00,0.1113
1331.00,0.1110
1330.00,0.1108
1329.00,0.1107
1328.00,0.1105
1327.00,0.1104
1326.00,0.1103
1325.00,0.1103
1324.00,0.1102
1323.00,0.1101
1322.00,0.1101
1321.00,0.1101
1320.00,0.1100
1319.00,0.1100
1318.00,0.1099
1317.00,0.1099
1316.00,0.1099
1315.00,0.1100
1314.00,0.1101
1313.00,0.1105
1312.00,0.1110
1311.00,0.1116
1310.00,0.1123
1309.00,0.1131
1308.00,0.1137
1307.00,0.1143
1306.00,0.1150
1305.00,0.1156
1304.00,0.1161
1303.00,0.1159
1302.00,0.1151
1301.00,0.1138
1300.00,0.1123
1299.00,0.1109
1298.00,0.1097
1297.00,0.1087
1296.00,0.1078
1295.00,0.1071
1294.00,0.1065
1293.00,0.1060
1292.00,0.1055
1291.00,0.1051
1290.00,0.1048
1289.00,0.1044
1288.00,0.1041
1287.00,0.1038
1286.00,0.1035
1285.00,0.1033
1284.00,0.1031
1283.00,0.1030
1282.00,0.1031
1281.00,0.1034
1280.00,0.1042
1279.00,0.1061
1278.00,0.1107
1277.00,0.1209
1276.00,0.1396
1275.00,0.1671
1274.00,0.1986
1273.00,0.2246
1272.00,0.2353
1271.00,0.2279
1270.00,0.2080
1269.00,0.1846
1268.00,0.1645
1267.00,0.1503
1266.00,0.1419
1265.00,0.1373
1264.00,0.1347
1263.00,0.1325
1262.00,0.1300
1261.00,0.1270
1260.00,0.1240
1259.00,0.1216
1258.00,0.1202
1257.00,0.1199
1256.00,0.1204
1255.00,0.1218
1254.00,0.1238
1253.00,0.1262
1252.00,0.1288
1251.00,0.1316
1250.00,0.1349
1249.00,0.1390
1248.00,0.1442
1247.00,0.1508
1246.00,0.1576
1245.00,0.1625
1244.00,0.1631
1243.00,0.1591
1242.00,0.1519
1241.00,0.1437
1240.00,0.1361
1239.00,0.1298
1238.00,0.1251
1237.00,0.1216
1236.00,0.1189
1235.00,0.1168
1234.00,0.1151
1233.00,0.1138
1232.00,0.1126
1231.00,0.1115
1230.00,0.1105
1229.00,0.1094
1228.00,0.1082
1227.00,0.1070
1226.00,0.1058
1225.00,0.1048
1224.00,0.1037
1223.00,0.1029
1222.00,0.1025
1221.00,0.1029
1220.00,0.1049
1219.00,0.1090
1218.00,0.1160
1217.00,0.1261
1216.00,0.1393
1215.00,0.1547
1214.00,0.1713
1213.00,0.1873
1212.00,0.2001
1211.00,0.2073
1210.00,0.2070
1209.00,0.1997
1208.00,0.1877
1207.00,0.1743
1206.00,0.1622
1205.00,0.1524
1204.00,0.1451
1203.00,0.1397
1202.00,0.1360
1201.00,0.1335
1200.00,0.1315
1199.00,0.1300
1198.00,0.1287
1197.00,0.1277
1196.00,0.1270
1195.00,0.1265
1194.00,0.1263
1193.00,0.1265
1192.00,0.1266
1191.00,0.1268
1190.00,0.1269
1189.00,0.1270
1188.00,0.1268
1187.00,0.1264
1186.00,0.1260
1185.00,0.1255
1184.00,0.1249
1183.00,0.1245
1182.00,0.1245
1181.00,0.1250
1180.00,0.1263
1179.00,0.1284
1178.00,0.1310
1177.00,0.1332
1176.00,0.1341
1175.00,0.1332
1174.00,0.1309
1173.00,0.1280
1172.00,0.1250
1171.00,0.1224
1170.00,0.1203
1169.00,0.1187
1168.00,0.1175
1167.00,0.1164
1166.00,0.1155
1165.00,0.1148
1164.00,0.1142
1163.00,0.1136
1162.00,0.1130
1161.00,0.1126
1160.00,0.1121
1159.00,0.1117
1158.00,0.1112
1157.00,0.1108
1156.00,0.1103
1155.00,0.1098
1154.00,0.1091
1153.00,0.1084
1152.00,0.1076
1151.00,0.1069
1150.00,0.1062
1149.00,0.1057
1148.00,0.1055
1147.00,0.1057
1146.00,0.1072
1145.00,0.1116
1144.00,0.1194
1143.00,0.1284
1142.00,0.1341
1141.00,0.1332
1140.00,0.1264
1139.00,0.1177
1138.00,0.1106
1137.00,0.1056
1136.00,0.1020
1135.00,0.0991
1134.00,0.0973
1133.00,0.0978
1132.00,0.1031
1131.00,0.1166
1130.00,0.1406
1129.00,0.1722
1128.00,0.2026
1127.00,0.2226
1126.00,0.2322
1125.00,0.2397
1124.00,0.2502
1123.00,0.2587
1122.00,0.2552
1121.00,0.2370
1120.00,0.2117
1119.00,0.1885
1118.00,0.1714
1117.00,0.1594
1116.00,0.1508
1115.00,0.1445
1114.00,0.1399
1113.00,0.1366
1112.00,0.1339
1111.00,0.1319
1110.00,0.1304
1109.00,0.1290
1108.00,0.1277
1107.00,0.1266
1106.00,0.1257
1105.00,0.1249
1104.00,0.1242
1103.00,0.1236
1102.00,0.1232
1101.00,0.1227
1100.00,0.1222
1099.00,0.1218
1098.00,0.1214
1097.00,0.1211
1096.00,0.1207
1095.00,0.1205
1094.00,0.1206
1093.00,0.1211
1092.00,0.1220
1091.00,0.1234
1090.00,0.1249
1089.00,0.1259
1088.00,0.1259
1087.00,0.1251
1086.00,0.1240
1085.00,0.1227
1084.00,0.1216
1083.00,0.1206
1082.00,0.1199
1081.00,0.1192
1080.00,0.1185
1079.00,0.1179
1078.00,0.1176
1077.00,0.1173
1076.00,0.1169
1075.00,0.1167
1074.00,0.1166
1073.00,0.1164
1072.00,0.1162
1071.00,0.1160
1070.00,0.1159
1069.00,0.1159
1068.00,0.1157
1067.00,0.1155
1066.00,0.1154
1065.00,0.1153
1064.00,0.1151
1063.00,0.1149
1062.00,0.1148
1061.00,0.1146
1060.00,0.1144
1059.00,0.1142
1058.00,0.1140
1057.00,0.1139
1056.00,0.1137
1055.00,0.1134
1054.00,0.1133
1053.00,0.1131
1052.00,0.1128
1051.00,0.1126
1050.00,0.1125
1049.00,0.1123
1048.00,0.1121
1047.00,0.1118
1046.00,0.1116
1045.00,0.1113
1044.00,0.1109
1043.00,0.1105
1042.00,0.1102
1041.00,0.1099
1040.00,0.1096
1039.00,0.1093
1038.00,0.1090
1037.00,0.1088
1036.00,0.1084
1035.00,0.1079
1034.00,0.1075
1033.00,0.1071
1032.00,0.1066
1031.00,0.1061
1030.00,0.1057
1029.00,0.1053
1028.00,0.1047
1027.00,0.1040
1026.00,0.1034
1025.00,0.1027
1024.00,0.1020
1023.00,0.1012
1022.00,0.1005
1021.00,0.0999
1020.00,0.0990
1019.00,0.0977
1018.00,0.0960
1017.00,0.0939
1016.00,0.0915
1015.00,0.0890
1014.00,0.0868
1013.00,0.0851
1012.00,0.0861
1011.00,0.0947
1010.00,0.1172
1009.00,0.1552
1008.00,0.2004
1007.00,0.2354
1006.00,0.2459
1005.00,0.2341
1004.00,0.2140
1003.00,0.1963
1002.00,0.1832
1001.00,0.1727
1000.00,0.1633
999.00,0.1552
998.00,0.1485
997.00,0.1434
996.00,0.1396
995.00,0.1368
994.00,0.1346
993.00,0.1325
992.00,0.1305
991.00,0.1288
990.00,0.1274
989.00,0.1261
988.00,0.1252
987.00,0.1248
986.00,0.1251
985.00,0.1264
984.00,0.1300
983.00,0.1370
982.00,0.1468
981.00,0.1561
980.00,0.1610
979.00,0.1601
978.00,0.1557
977.00,0.1510
976.00,0.1479
975.00,0.1462
974.00,0.1449
973.00,0.1433
972.00,0.1415
971.00,0.1395
970.00,0.1373
969.00,0.1353
968.00,0.1338
967.00,0.1335
966.00,0.1353
965.00,0.1408
964.00,0.1523
963.00,0.1720
962.00,0.1998
961.00,0.2317
960.00,0.2584
959.00,0.2695
958.00,0.2605
957.00,0.2367
956.00,0.2085
955.00,0.1838
954.00,0.1656
953.00,0.1535
952.00,0.1455
951.00,0.1402
950.00,0.1365
949.00,0.1338
948.00,0.1316
947.00,0.1299
946.00,0.1286
945.00,0.1275
944.00,0.1267
943.00,0.1263
942.00,0.1263
941.00,0.1265
940.00,0.1269
939.00,0.1273
938.00,0.1276
937.00,0.1278
936.00,0.1277
935.00,0.1275
934.00,0.1271
933.00,0.1265
932.00,0.1257
931.00,0.1249
930.00,0.1241
929.00,0.1232
928.00,0.1225
927.00,0.1218
926.00,0.1213
925.00,0.1208
924.00,0.1204
923.00,0.1202
922.00,0.1200
921.00,0.1200
920.00,0.1202
919.00,0.1205
918.00,0.1210
917.00,0.1215
916.00,0.1218
915.00,0.1221
914.00,0.1222
913.00,0.1221
912.00,0.1219
911.00,0.1217
910.00,0.1214
909.00,0.1211
908.00,0.1207
907.00,0.1203
906.00,0.1199
905.00,0.1195
904.00,0.1190
903.00,0.1186
902.00,0.1183
901.00,0.1179
900.00,0.1175
899.00,0.1172
898.00,0.1170
897.00,0.1168
896.00,0.1165
895.00,0.1163
894.00,0.1160
893.00,0.1156
892.00,0.1151
891.00,0.1148
890.00,0.1145
889.00,0.1143
888.00,0.1141
887.00,0.1141
886.00,0.1141
885.00,0.1141
884.00,0.1141
883.00,0.1143
882.00,0.1145
881.00,0.1146
880.00,0.1147
879.00,0.1147
878.00,0.1148
877.00,0.1149
876.00,0.1149
875.00,0.1150
874.00,0.1153
873.00,0.1156
872.00,0.1157
871.00,0.1158
870.00,0.1158
869.00,0.1157
868.00,0.1155
867.00,0.1153
866.00,0.1153
865.00,0.1151
864.00,0.1149
863.00,0.1149
862.00,0.1149
861.00,0.1148
860.00,0.1145
859.00,0.1144
858.00,0.1145
857.00,0.1144
856.00,0.1143
855.00,0.1143
854.00,0.1145
853.00,0.1146
852.00,0.1148
851.00,0.1154
850.00,0.1167
849.00,0.1195
848.00,0.1262
847.00,0.1384
846.00,0.1542
845.00,0.1668
844.00,0.1693
843.00,0.1613
842.00,0.1488
841.00,0.1377
840.00,0.1304
839.00,0.1258
838.00,0.1229
837.00,0.1211
836.00,0.1203
835.00,0.1200
834.00,0.1201
833.00,0.1205
832.00,0.1212
831.00,0.1218
830.00,0.1222
829.00,0.1223
828.00,0.1222
827.00,0.1224
826.00,0.1233
825.00,0.1253
824.00,0.1281
823.00,0.1311
822.00,0.1335
821.00,0.1347
820.00,0.1346
819.00,0.1334
818.00,0.1313
817.00,0.1287
816.00,0.1260
815.00,0.1234
814.00,0.1210
813.00,0.1187
812.00,0.1168
811.00,0.1152
810.00,0.1138
809.00,0.1126
808.00,0.1115
807.00,0.1106
806.00,0.1099
805.00,0.1095
804.00,0.1095
803.00,0.1101
802.00,0.1122
801.00,0.1179
800.00,0.1294
799.00,0.1455
798.00,0.1609
797.00,0.1700
796.00,0.1733
795.00,0.1790
794.00,0.1963
793.00,0.2296
792.00,0.2764
791.00,0.3279
790.00,0.3727
789.00,0.4018
788.00,0.4136
787.00,0.4139
786.00,0.4098
785.00,0.4060
784.00,0.4051
783.00,0.4090
782.00,0.4199
781.00,0.4392
780.00,0.4679
779.00,0.5052
778.00,0.5469
777.00,0.5855
776.00,0.6128
775.00,0.6253
774.00,0.6258
773.00,0.6186
772.00,0.6065
771.00,0.5915
770.00,0.5747
769.00,0.5565
768.00,0.5370
767.00,0.5165
766.00,0.4960
765.00,0.4757
764.00,0.4558
763.00,0.4367
762.00,0.4190
761.00,0.4026
760.00,0.3867
759.00,0.3710
758.00,0.3556
757.00,0.3410
756.00,0.3278
755.00,0.3168
754.00,0.3082
753.00,0.3019
752.00,0.2975
751.00,0.2945
750.00,0.2920
749.00,0.2885
748.00,0.2825
747.00,0.2740
746.00,0.2635
745.00,0.2524
744.00,0.2418
743.00,0.2325
742.00,0.2247
741.00,0.2182
740.00,0.2127
739.00,0.2079
738.00,0.2040
737.00,0.2008
736.00,0.1984
735.00,0.1970
734.00,0.1967
733.00,0.1974
732.00,0.1985
731.00,0.1995
730.00,0.1999
729.00,0.1993
728.00,0.1974
727.00,0.1944
726.00,0.1908
725.00,0.1867
724.00,0.1824
723.00,0.1783
722.00,0.1747
721.00,0.1716
720.00,0.1690
719.00,0.1667
718.00,0.1646
717.00,0.1626
716.00,0.1604
715.00,0.1582
714.00,0.1561
713.00,0.1542
712.00,0.1523
711.00,0.1507
710.00,0.1493
709.00,0.1480
708.00,0.1468
707.00,0.1457
706.00,0.1448
705.00,0.1440
704.00,0.1432
703.00,0.1426
702.00,0.1421
701.00,0.1416
700.00,0.1411
699.00,0.1406
698.00,0.1403
697.00,0.1399
696.00,0.1394
695.00,0.1389
694.00,0.1384
693.00,0.1379
692.00,0.1373
691.00,0.1368
690.00,0.1364
689.00,0.1360
688.00,0.1356
687.00,0.1353
686.00,0.1350
685.00,0.1346
684.00,0.1341
683.00,0.1336
682.00,0.1331
681.00,0.1327
680.00,0.1322
679.00,0.1317
678.00,0.1313
677.00,0.1308
676.00,0.1302
675.00,0.1297
674.00,0.1293
673.00,0.1288
672.00,0.1284
671.00,0.1282
670.00,0.1285
669.00,0.1296
668.00,0.1313
667.00,0.1321
666.00,0.1306
665.00,0.1282
664.00,0.1266
663.00,0.1258
662.00,0.1256
661.00,0.1255
660.00,0.1254
659.00,0.1253
658.00,0.1253
657.00,0.1250
656.00,0.1245
655.00,0.1240
654.00,0.1233
653.00,0.1225
652.00,0.1217
651.00,0.1210
650.00,0.1203
649.00,0.1196
648.00,0.1188
647.00,0.1183
646.00,0.1178
645.00,0.1173
644.00,0.1167
643.00,0.1163
642.00,0.1159
641.00,0.1154
640.00,0.1149
639.00,0.1144
638.00,0.1139
637.00,0.1134
636.00,0.1128
635.00,0.1123
634.00,0.1119
633.00,0.1114
632.00,0.1109
631.00,0.1104
630.00,0.1099
629.00,0.1088
628.00,0.1074
627.00,0.1063
626.00,0.1060
625.00,0.1065
624.00,0.1066
623.00,0.1050
622.00,0.1021
621.00,0.1036
620.00,0.1180
619.00,0.1495
618.00,0.1903
617.00,0.2209
616.00,0.2264
615.00,0.2112
614.00,0.1905
613.00,0.1731
612.00,0.1597
611.00,0.1494
610.00,0.1422
609.00,0.1378
608.00,0.1349
607.00,0.1325
606.00,0.1310
605.00,0.1301
604.00,0.1295
603.00,0.1288
602.00,0.1284
601.00,0.1283
600.00,0.1281
599.00,0.1274
598.00,0.1269
597.00,0.1264
596.00,0.1258
595.00,0.1250
594.00,0.1244
593.00,0.1242
592.00,0.1239
591.00,0.1236
590.00,0.1237
589.00,0.1240
588.00,0.1242
587.00,0.1244
586.00,0.1249
585.00,0.1258
584.00,0.1267
583.00,0.1276
582.00,0.1286
581.00,0.1298
580.00,0.1306
579.00,0.1311
578.00,0.1315
577.00,0.1317
576.00,0.1314
575.00,0.1307
574.00,0.1299
573.00,0.1290
572.00,0.1280
571.00,0.1268
570.00,0.1258
569.00,0.1250
568.00,0.1242
567.00,0.1235
566.00,0.1233
565.00,0.1236
564.00,0.1239
563.00,0.1242
562.00,0.1247
561.00,0.1253
560.00,0.1255
559.00,0.1253
558.00,0.1251
557.00,0.1248
556.00,0.1242
555.00,0.1234
554.00,0.1228
553.00,0.1223
552.00,0.1217
551.00,0.1212
550.00,0.1209
549.00,0.1207
548.00,0.1205
547.00,0.1202
546.00,0.1201
545.00,0.1201
544.00,0.1198
543.00,0.1194
542.00,0.1193
541.00,0.1192
540.00,0.1189
539.00,0.1187
538.00,0.1186
537.00,0.1184
536.00,0.1180
535.00,0.1175
534.00,0.1173
533.00,0.1172
532.00,0.1170
531.00,0.1167
530.00,0.1167
529.00,0.1168
528.00,0.1167
527.00,0.1167
526.00,0.1168
525.00,0.1170
524.00,0.1167
523.00,0.1164
522.00,0.1164
521.00,0.1166
520.00,0.1168
519.00,0.1168
518.00,0.1168
517.00,0.1167
516.00,0.1163
515.00,0.1159
514.00,0.1158
513.00,0.1160
512.00,0.1159
511.00,0.1156
510.00,0.1156
509.00,0.1157
508.00,0.1159
507.00,0.1164
506.00,0.1172
505.00,0.1180
504.00,0.1183
503.00,0.1182
502.00,0.1181
501.00,0.1178
500.00,0.1171
499.00,0.1161
498.00,0.1153
497.00,0.1148
496.00,0.1146
495.00,0.1148
494.00,0.1157
493.00,0.1170
492.00,0.1185
491.00,0.1208
490.00,0.1249
489.00,0.1317
488.00,0.1428
487.00,0.1607
486.00,0.1883
485.00,0.2278
484.00,0.2800
483.00,0.3426
482.00,0.4071
481.00,0.4581
480.00,0.4807
479.00,0.4717
478.00,0.4420
477.00,0.4065
476.00,0.3789
475.00,0.3716
474.00,0.3933
473.00,0.4399
472.00,0.4843
471.00,0.4883
470.00,0.4451
469.00,0.3835
468.00,0.3286
467.00,0.2885
466.00,0.2613
465.00,0.2421
464.00,0.2271
463.00,0.2143
462.00,0.2032
461.00,0.1936
460.00,0.1854
459.00,0.1785
458.00,0.1730
457.00,0.1685
456.00,0.1645
455.00,0.1611
454.00,0.1584
453.00,0.1560
452.00,0.1534
451.00,0.1509
450.00,0.1490
449.00,0.1476
448.00,0.1464
447.00,0.1453
446.00,0.1443
445.00,0.1431
444.00,0.1414
443.00,0.1395
442.00,0.1383
441.00,0.1374
440.00,0.1365
439.00,0.1358
438.00,0.1354
437.00,0.1349
436.00,0.1338
435.00,0.1326
434.00,0.1320
433.00,0.1313
432.00,0.1302
431.00,0.1290
430.00,0.1285
429.00,0.1286
428.00,0.1286
427.00,0.1286
426.00,0.1289
425.00,0.1288
424.00,0.1279
423.00,0.1271
422.00,0.1270
421.00,0.1271
420.00,0.1269
419.00,0.1269
418.00,0.1272
417.00,0.1269
416.00,0.1256
415.00,0.1243
414.00,0.1239
413.00,0.1238
412.00,0.1232
411.00,0.1227
410.00,0.1232
409.00,0.1237
408.00,0.1232
407.00,0.1225
406.00,0.1227
405.00,0.1227
404.00,0.1217
403.00,0.1207
402.00,0.1212
401.00,0.1217
400.00,0.1205
