Created as New Dataset,Sample 862 By YargerLab Date Saturday, April 18 2026
cm-1,A
4000.00,0.0008
3999.00,0.0008
3998.00,0.0008
3997.00,0.0007
3996.00,0.0007
3995.00,0.0007
3994.00,0.0007
3993.00,0.0007
3992.00,0.0007
3991.00,0.0007
3990.00,0.0007
3989.00,0.0007
3988.00,0.0007
3987.00,0.0007
3986.00,0.0007
3985.00,0.0007
3984.00,0.0007
3983.00,0.0007
3982.00,0.0007
3981.00,0.0007
3980.00,0.0007
3979.00,0.0007
3978.00,0.0007
3977.00,0.0007
3976.00,0.0007
3975.00,0.0007
3974.00,0.0007
3973.00,0.0007
3972.00,0.0007
3971.00,0.0007
3970.00,0.0007
3969.00,0.0007
3968.00,0.0007
3967.00,0.0007
3966.00,0.0007
3965.00,0.0007
3964.00,0.0007
3963.00,0.0007
3962.00,0.0007
3961.00,0.0007
3960.00,0.0008
3959.00,0.0008
3958.00,0.0008
3957.00,0.0007
3956.00,0.0007
3955.00,0.0007
3954.00,0.0007
3953.00,0.0007
3952.00,0.0007
3951.00,0.0007
3950.00,0.0007
3949.00,0.0007
3948.00,0.0007
3947.00,0.0008
3946.00,0.0008
3945.00,0.0008
3944.00,0.0008
3943.00,0.0008
3942.00,0.0008
3941.00,0.0008
3940.00,0.0008
3939.00,0.0008
3938.00,0.0008
3937.00,0.0008
3936.00,0.0007
3935.00,0.0007
3934.00,0.0007
3933.00,0.0007
3932.00,0.0007
3931.00,0.0007
3930.00,0.0007
3929.00,0.0008
3928.00,0.0008
3927.00,0.0008
3926.00,0.0008
3925.00,0.0008
3924.00,0.0008
3923.00,0.0007
3922.00,0.0007
3921.00,0.0007
3920.00,0.0007
3919.00,0.0007
3918.00,0.0007
3917.00,0.0007
3916.00,0.0008
3915.00,0.0008
3914.00,0.0008
3913.00,0.0008
3912.00,0.0008
3911.00,0.0008
3910.00,0.0008
3909.00,0.0007
3908.00,0.0007
3907.00,0.0007
3906.00,0.0008
3905.00,0.0008
3904.00,0.0008
3903.00,0.0008
3902.00,0.0008
3901.00,0.0008
3900.00,0.0008
3899.00,0.0008
3898.00,0.0008
3897.00,0.0008
3896.00,0.0008
3895.00,0.0008
3894.00,0.0008
3893.00,0.0008
3892.00,0.0008
3891.00,0.0007
3890.00,0.0007
3889.00,0.0007
3888.00,0.0007
3887.00,0.0007
3886.00,0.0007
3885.00,0.0007
3884.00,0.0007
3883.00,0.0007
3882.00,0.0008
3881.00,0.0007
3880.00,0.0007
3879.00,0.0007
3878.00,0.0007
3877.00,0.0007
3876.00,0.0007
3875.00,0.0007
3874.00,0.0007
3873.00,0.0007
3872.00,0.0007
3871.00,0.0007
3870.00,0.0007
3869.00,0.0007
3868.00,0.0007
3867.00,0.0007
3866.00,0.0007
3865.00,0.0007
3864.00,0.0007
3863.00,0.0008
3862.00,0.0008
3861.00,0.0008
3860.00,0.0008
3859.00,0.0007
3858.00,0.0008
3857.00,0.0008
3856.00,0.0008
3855.00,0.0008
3854.00,0.0008
3853.00,0.0008
3852.00,0.0008
3851.00,0.0008
3850.00,0.0008
3849.00,0.0008
3848.00,0.0007
3847.00,0.0007
3846.00,0.0007
3845.00,0.0007
3844.00,0.0007
3843.00,0.0007
3842.00,0.0008
3841.00,0.0008
3840.00,0.0008
3839.00,0.0008
3838.00,0.0008
3837.00,0.0007
3836.00,0.0007
3835.00,0.0007
3834.00,0.0007
3833.00,0.0007
3832.00,0.0007
3831.00,0.0007
3830.00,0.0007
3829.00,0.0007
3828.00,0.0007
3827.00,0.0007
3826.00,0.0007
3825.00,0.0007
3824.00,0.0007
3823.00,0.0007
3822.00,0.0008
3821.00,0.0007
3820.00,0.0007
3819.00,0.0007
3818.00,0.0007
3817.00,0.0007
3816.00,0.0006
3815.00,0.0006
3814.00,0.0006
3813.00,0.0007
3812.00,0.0007
3811.00,0.0007
3810.00,0.0007
3809.00,0.0007
3808.00,0.0007
3807.00,0.0007
3806.00,0.0007
3805.00,0.0008
3804.00,0.0008
3803.00,0.0008
3802.00,0.0008
3801.00,0.0007
3800.00,0.0007
3799.00,0.0008
3798.00,0.0008
3797.00,0.0008
3796.00,0.0008
3795.00,0.0008
3794.00,0.0007
3793.00,0.0007
3792.00,0.0007
3791.00,0.0007
3790.00,0.0007
3789.00,0.0008
3788.00,0.0008
3787.00,0.0008
3786.00,0.0008
3785.00,0.0007
3784.00,0.0007
3783.00,0.0007
3782.00,0.0007
3781.00,0.0007
3780.00,0.0007
3779.00,0.0007
3778.00,0.0007
3777.00,0.0007
3776.00,0.0007
3775.00,0.0007
3774.00,0.0007
3773.00,0.0007
3772.00,0.0008
3771.00,0.0008
3770.00,0.0008
3769.00,0.0008
3768.00,0.0007
3767.00,0.0007
3766.00,0.0007
3765.00,0.0007
3764.00,0.0007
3763.00,0.0007
3762.00,0.0007
3761.00,0.0007
3760.00,0.0007
3759.00,0.0007
3758.00,0.0007
3757.00,0.0007
3756.00,0.0007
3755.00,0.0007
3754.00,0.0008
3753.00,0.0008
3752.00,0.0008
3751.00,0.0008
3750.00,0.0008
3749.00,0.0008
3748.00,0.0008
3747.00,0.0008
3746.00,0.0008
3745.00,0.0007
3744.00,0.0007
3743.00,0.0007
3742.00,0.0007
3741.00,0.0007
3740.00,0.0007
3739.00,0.0007
3738.00,0.0007
3737.00,0.0008
3736.00,0.0008
3735.00,0.0008
3734.00,0.0008
3733.00,0.0008
3732.00,0.0007
3731.00,0.0007
3730.00,0.0007
3729.00,0.0007
3728.00,0.0007
3727.00,0.0008
3726.00,0.0008
3725.00,0.0008
3724.00,0.0008
3723.00,0.0007
3722.00,0.0007
3721.00,0.0007
3720.00,0.0007
3719.00,0.0007
3718.00,0.0007
3717.00,0.0007
3716.00,0.0007
3715.00,0.0008
3714.00,0.0008
3713.00,0.0007
3712.00,0.0007
3711.00,0.0007
3710.00,0.0007
3709.00,0.0007
3708.00,0.0007
3707.00,0.0007
3706.00,0.0006
3705.00,0.0006
3704.00,0.0006
3703.00,0.0006
3702.00,0.0006
3701.00,0.0006
3700.00,0.0007
3699.00,0.0007
3698.00,0.0007
3697.00,0.0007
3696.00,0.0007
3695.00,0.0007
3694.00,0.0007
3693.00,0.0006
3692.00,0.0006
3691.00,0.0006
3690.00,0.0006
3689.00,0.0006
3688.00,0.0005
3687.00,0.0005
3686.00,0.0005
3685.00,0.0005
3684.00,0.0005
3683.00,0.0005
3682.00,0.0006
3681.00,0.0006
3680.00,0.0006
3679.00,0.0006
3678.00,0.0006
3677.00,0.0005
3676.00,0.0005
3675.00,0.0005
3674.00,0.0004
3673.00,0.0004
3672.00,0.0004
3671.00,0.0004
3670.00,0.0003
3669.00,0.0004
3668.00,0.0004
3667.00,0.0004
3666.00,0.0004
3665.00,0.0004
3664.00,0.0004
3663.00,0.0004
3662.00,0.0004
3661.00,0.0004
3660.00,0.0004
3659.00,0.0004
3658.00,0.0004
3657.00,0.0004
3656.00,0.0004
3655.00,0.0004
3654.00,0.0004
3653.00,0.0004
3652.00,0.0004
3651.00,0.0004
3650.00,0.0003
3649.00,0.0003
3648.00,0.0003
3647.00,0.0003
3646.00,0.0003
3645.00,0.0004
3644.00,0.0004
3643.00,0.0004
3642.00,0.0004
3641.00,0.0004
3640.00,0.0004
3639.00,0.0004
3638.00,0.0005
3637.00,0.0005
3636.00,0.0005
3635.00,0.0005
3634.00,0.0005
3633.00,0.0005
3632.00,0.0005
3631.00,0.0006
3630.00,0.0006
3629.00,0.0006
3628.00,0.0006
3627.00,0.0006
3626.00,0.0006
3625.00,0.0006
3624.00,0.0006
3623.00,0.0006
3622.00,0.0007
3621.00,0.0007
3620.00,0.0007
3619.00,0.0007
3618.00,0.0007
3617.00,0.0007
3616.00,0.0006
3615.00,0.0006
3614.00,0.0006
3613.00,0.0006
3612.00,0.0006
3611.00,0.0006
3610.00,0.0007
3609.00,0.0007
3608.00,0.0007
3607.00,0.0007
3606.00,0.0007
3605.00,0.0007
3604.00,0.0006
3603.00,0.0006
3602.00,0.0006
3601.00,0.0006
3600.00,0.0006
3599.00,0.0006
3598.00,0.0006
3597.00,0.0007
3596.00,0.0007
3595.00,0.0007
3594.00,0.0007
3593.00,0.0007
3592.00,0.0007
3591.00,0.0007
3590.00,0.0007
3589.00,0.0007
3588.00,0.0006
3587.00,0.0006
3586.00,0.0006
3585.00,0.0006
3584.00,0.0006
3583.00,0.0006
3582.00,0.0006
3581.00,0.0006
3580.00,0.0007
3579.00,0.0007
3578.00,0.0007
3577.00,0.0007
3576.00,0.0006
3575.00,0.0006
3574.00,0.0006
3573.00,0.0006
3572.00,0.0007
3571.00,0.0007
3570.00,0.0007
3569.00,0.0007
3568.00,0.0007
3567.00,0.0007
3566.00,0.0007
3565.00,0.0007
3564.00,0.0007
3563.00,0.0007
3562.00,0.0006
3561.00,0.0006
3560.00,0.0006
3559.00,0.0007
3558.00,0.0007
3557.00,0.0007
3556.00,0.0007
3555.00,0.0007
3554.00,0.0007
3553.00,0.0007
3552.00,0.0007
3551.00,0.0007
3550.00,0.0007
3549.00,0.0007
3548.00,0.0008
3547.00,0.0008
3546.00,0.0008
3545.00,0.0007
3544.00,0.0007
3543.00,0.0007
3542.00,0.0007
3541.00,0.0007
3540.00,0.0008
3539.00,0.0008
3538.00,0.0008
3537.00,0.0008
3536.00,0.0008
3535.00,0.0008
3534.00,0.0008
3533.00,0.0008
3532.00,0.0008
3531.00,0.0008
3530.00,0.0008
3529.00,0.0008
3528.00,0.0008
3527.00,0.0008
3526.00,0.0008
3525.00,0.0008
3524.00,0.0008
3523.00,0.0008
3522.00,0.0008
3521.00,0.0008
3520.00,0.0008
3519.00,0.0008
3518.00,0.0008
3517.00,0.0008
3516.00,0.0009
3515.00,0.0009
3514.00,0.0008
3513.00,0.0008
3512.00,0.0008
3511.00,0.0008
3510.00,0.0007
3509.00,0.0008
3508.00,0.0008
3507.00,0.0008
3506.00,0.0009
3505.00,0.0009
3504.00,0.0009
3503.00,0.0009
3502.00,0.0009
3501.00,0.0009
3500.00,0.0009
3499.00,0.0008
3498.00,0.0008
3497.00,0.0008
3496.00,0.0008
3495.00,0.0008
3494.00,0.0008
3493.00,0.0009
3492.00,0.0009
3491.00,0.0009
3490.00,0.0009
3489.00,0.0009
3488.00,0.0009
3487.00,0.0009
3486.00,0.0008
3485.00,0.0008
3484.00,0.0008
3483.00,0.0008
3482.00,0.0008
3481.00,0.0008
3480.00,0.0008
3479.00,0.0009
3478.00,0.0009
3477.00,0.0009
3476.00,0.0009
3475.00,0.0009
3474.00,0.0009
3473.00,0.0009
3472.00,0.0009
3471.00,0.0009
3470.00,0.0009
3469.00,0.0009
3468.00,0.0009
3467.00,0.0009
3466.00,0.0009
3465.00,0.0009
3464.00,0.0009
3463.00,0.0010
3462.00,0.0010
3461.00,0.0010
3460.00,0.0010
3459.00,0.0010
3458.00,0.0010
3457.00,0.0010
3456.00,0.0010
3455.00,0.0009
3454.00,0.0009
3453.00,0.0009
3452.00,0.0009
3451.00,0.0009
3450.00,0.0009
3449.00,0.0009
3448.00,0.0009
3447.00,0.0009
3446.00,0.0009
3445.00,0.0009
3444.00,0.0009
3443.00,0.0009
3442.00,0.0010
3441.00,0.0010
3440.00,0.0009
3439.00,0.0009
3438.00,0.0009
3437.00,0.0009
3436.00,0.0009
3435.00,0.0009
3434.00,0.0009
3433.00,0.0010
3432.00,0.0010
3431.00,0.0010
3430.00,0.0010
3429.00,0.0010
3428.00,0.0010
3427.00,0.0010
3426.00,0.0010
3425.00,0.0010
3424.00,0.0010
3423.00,0.0010
3422.00,0.0010
3421.00,0.0010
3420.00,0.0010
3419.00,0.0010
3418.00,0.0010
3417.00,0.0010
3416.00,0.0010
3415.00,0.0010
3414.00,0.0010
3413.00,0.0010
3412.00,0.0010
3411.00,0.0010
3410.00,0.0010
3409.00,0.0010
3408.00,0.0010
3407.00,0.0010
3406.00,0.0010
3405.00,0.0009
3404.00,0.0009
3403.00,0.0009
3402.00,0.0010
3401.00,0.0010
3400.00,0.0010
3399.00,0.0010
3398.00,0.0010
3397.00,0.0010
3396.00,0.0010
3395.00,0.0010
3394.00,0.0010
3393.00,0.0009
3392.00,0.0009
3391.00,0.0009
3390.00,0.0010
3389.00,0.0010
3388.00,0.0010
3387.00,0.0010
3386.00,0.0010
3385.00,0.0010
3384.00,0.0009
3383.00,0.0010
3382.00,0.0010
3381.00,0.0010
3380.00,0.0010
3379.00,0.0010
3378.00,0.0010
3377.00,0.0010
3376.00,0.0010
3375.00,0.0010
3374.00,0.0010
3373.00,0.0010
3372.00,0.0010
3371.00,0.0010
3370.00,0.0010
3369.00,0.0010
3368.00,0.0010
3367.00,0.0011
3366.00,0.0011
3365.00,0.0011
3364.00,0.0011
3363.00,0.0011
3362.00,0.0011
3361.00,0.0011
3360.00,0.0011
3359.00,0.0011
3358.00,0.0010
3357.00,0.0010
3356.00,0.0010
3355.00,0.0010
3354.00,0.0010
3353.00,0.0010
3352.00,0.0010
3351.00,0.0010
3350.00,0.0010
3349.00,0.0010
3348.00,0.0010
3347.00,0.0010
3346.00,0.0010
3345.00,0.0010
3344.00,0.0011
3343.00,0.0011
3342.00,0.0011
3341.00,0.0011
3340.00,0.0010
3339.00,0.0010
3338.00,0.0010
3337.00,0.0010
3336.00,0.0010
3335.00,0.0011
3334.00,0.0011
3333.00,0.0011
3332.00,0.0011
3331.00,0.0010
3330.00,0.0010
3329.00,0.0010
3328.00,0.0010
3327.00,0.0011
3326.00,0.0011
3325.00,0.0011
3324.00,0.0011
3323.00,0.0011
3322.00,0.0011
3321.00,0.0011
3320.00,0.0011
3319.00,0.0010
3318.00,0.0010
3317.00,0.0010
3316.00,0.0011
3315.00,0.0011
3314.00,0.0011
3313.00,0.0011
3312.00,0.0011
3311.00,0.0011
3310.00,0.0011
3309.00,0.0011
3308.00,0.0011
3307.00,0.0011
3306.00,0.0011
3305.00,0.0011
3304.00,0.0011
3303.00,0.0010
3302.00,0.0010
3301.00,0.0010
3300.00,0.0010
3299.00,0.0011
3298.00,0.0011
3297.00,0.0011
3296.00,0.0011
3295.00,0.0010
3294.00,0.0010
3293.00,0.0010
3292.00,0.0011
3291.00,0.0011
3290.00,0.0011
3289.00,0.0010
3288.00,0.0010
3287.00,0.0010
3286.00,0.0010
3285.00,0.0010
3284.00,0.0010
3283.00,0.0010
3282.00,0.0010
3281.00,0.0011
3280.00,0.0011
3279.00,0.0011
3278.00,0.0010
3277.00,0.0010
3276.00,0.0010
3275.00,0.0010
3274.00,0.0010
3273.00,0.0010
3272.00,0.0010
3271.00,0.0011
3270.00,0.0011
3269.00,0.0010
3268.00,0.0010
3267.00,0.0010
3266.00,0.0010
3265.00,0.0010
3264.00,0.0010
3263.00,0.0010
3262.00,0.0010
3261.00,0.0010
3260.00,0.0010
3259.00,0.0010
3258.00,0.0010
3257.00,0.0011
3256.00,0.0011
3255.00,0.0011
3254.00,0.0011
3253.00,0.0011
3252.00,0.0010
3251.00,0.0010
3250.00,0.0010
3249.00,0.0010
3248.00,0.0010
3247.00,0.0010
3246.00,0.0010
3245.00,0.0010
3244.00,0.0010
3243.00,0.0010
3242.00,0.0010
3241.00,0.0010
3240.00,0.0010
3239.00,0.0010
3238.00,0.0010
3237.00,0.0010
3236.00,0.0010
3235.00,0.0010
3234.00,0.0010
3233.00,0.0010
3232.00,0.0010
3231.00,0.0010
3230.00,0.0010
3229.00,0.0010
3228.00,0.0010
3227.00,0.0010
3226.00,0.0009
3225.00,0.0009
3224.00,0.0009
3223.00,0.0009
3222.00,0.0009
3221.00,0.0009
3220.00,0.0010
3219.00,0.0010
3218.00,0.0010
3217.00,0.0010
3216.00,0.0010
3215.00,0.0010
3214.00,0.0010
3213.00,0.0010
3212.00,0.0010
3211.00,0.0010
3210.00,0.0010
3209.00,0.0010
3208.00,0.0010
3207.00,0.0010
3206.00,0.0010
3205.00,0.0010
3204.00,0.0010
3203.00,0.0010
3202.00,0.0010
3201.00,0.0010
3200.00,0.0010
3199.00,0.0010
3198.00,0.0010
3197.00,0.0010
3196.00,0.0010
3195.00,0.0010
3194.00,0.0010
3193.00,0.0009
3192.00,0.0009
3191.00,0.0009
3190.00,0.0009
3189.00,0.0009
3188.00,0.0010
3187.00,0.0010
3186.00,0.0010
3185.00,0.0010
3184.00,0.0009
3183.00,0.0009
3182.00,0.0009
3181.00,0.0009
3180.00,0.0010
3179.00,0.0009
3178.00,0.0009
3177.00,0.0009
3176.00,0.0009
3175.00,0.0009
3174.00,0.0009
3173.00,0.0009
3172.00,0.0009
3171.00,0.0009
3170.00,0.0009
3169.00,0.0009
3168.00,0.0009
3167.00,0.0010
3166.00,0.0010
3165.00,0.0010
3164.00,0.0010
3163.00,0.0010
3162.00,0.0010
3161.00,0.0010
3160.00,0.0010
3159.00,0.0010
3158.00,0.0010
3157.00,0.0010
3156.00,0.0010
3155.00,0.0010
3154.00,0.0009
3153.00,0.0009
3152.00,0.0009
3151.00,0.0009
3150.00,0.0009
3149.00,0.0009
3148.00,0.0009
3147.00,0.0009
3146.00,0.0009
3145.00,0.0009
3144.00,0.0009
3143.00,0.0009
3142.00,0.0009
3141.00,0.0009
3140.00,0.0009
3139.00,0.0009
3138.00,0.0009
3137.00,0.0009
3136.00,0.0009
3135.00,0.0009
3134.00,0.0009
3133.00,0.0009
3132.00,0.0009
3131.00,0.0009
3130.00,0.0009
3129.00,0.0009
3128.00,0.0009
3127.00,0.0009
3126.00,0.0009
3125.00,0.0009
3124.00,0.0009
3123.00,0.0009
3122.00,0.0009
3121.00,0.0009
3120.00,0.0009
3119.00,0.0009
3118.00,0.0009
3117.00,0.0010
3116.00,0.0010
3115.00,0.0011
3114.00,0.0011
3113.00,0.0011
3112.00,0.0012
3111.00,0.0012
3110.00,0.0012
3109.00,0.0013
3108.00,0.0014
3107.00,0.0014
3106.00,0.0015
3105.00,0.0015
3104.00,0.0016
3103.00,0.0016
3102.00,0.0016
3101.00,0.0016
3100.00,0.0016
3099.00,0.0015
3098.00,0.0015
3097.00,0.0015
3096.00,0.0015
3095.00,0.0016
3094.00,0.0016
3093.00,0.0016
3092.00,0.0017
3091.00,0.0018
3090.00,0.0020
3089.00,0.0022
3088.00,0.0023
3087.00,0.0025
3086.00,0.0027
3085.00,0.0029
3084.00,0.0031
3083.00,0.0032
3082.00,0.0033
3081.00,0.0033
3080.00,0.0032
3079.00,0.0031
3078.00,0.0029
3077.00,0.0028
3076.00,0.0027
3075.00,0.0026
3074.00,0.0025
3073.00,0.0025
3072.00,0.0025
3071.00,0.0026
3070.00,0.0027
3069.00,0.0028
3068.00,0.0029
3067.00,0.0031
3066.00,0.0033
3065.00,0.0035
3064.00,0.0037
3063.00,0.0040
3062.00,0.0042
3061.00,0.0043
3060.00,0.0044
3059.00,0.0045
3058.00,0.0044
3057.00,0.0043
3056.00,0.0041
3055.00,0.0038
3054.00,0.0036
3053.00,0.0034
3052.00,0.0032
3051.00,0.0030
3050.00,0.0029
3049.00,0.0028
3048.00,0.0027
3047.00,0.0026
3046.00,0.0026
3045.00,0.0025
3044.00,0.0025
3043.00,0.0025
3042.00,0.0026
3041.00,0.0027
3040.00,0.0028
3039.00,0.0029
3038.00,0.0031
3037.00,0.0033
3036.00,0.0036
3035.00,0.0039
3034.00,0.0042
3033.00,0.0047
3032.00,0.0052
3031.00,0.0057
3030.00,0.0063
3029.00,0.0069
3028.00,0.0074
3027.00,0.0078
3026.00,0.0081
3025.00,0.0082
3024.00,0.0081
3023.00,0.0078
3022.00,0.0074
3021.00,0.0068
3020.00,0.0061
3019.00,0.0055
3018.00,0.0048
3017.00,0.0043
3016.00,0.0038
3015.00,0.0034
3014.00,0.0030
3013.00,0.0027
3012.00,0.0025
3011.00,0.0023
3010.00,0.0021
3009.00,0.0020
3008.00,0.0019
3007.00,0.0018
3006.00,0.0018
3005.00,0.0018
3004.00,0.0018
3003.00,0.0018
3002.00,0.0018
3001.00,0.0017
3000.00,0.0016
2999.00,0.0014
2998.00,0.0013
2997.00,0.0011
2996.00,0.0009
2995.00,0.0007
2994.00,0.0005
2993.00,0.0004
2992.00,0.0003
2991.00,0.0003
2990.00,0.0002
2989.00,0.0002
2988.00,0.0001
2987.00,0.0001
2986.00,-0.0001
2985.00,-0.0003
2984.00,-0.0005
2983.00,-0.0008
2982.00,-0.0010
2981.00,-0.0011
2980.00,-0.0010
2979.00,-0.0009
2978.00,-0.0007
2977.00,-0.0005
2976.00,-0.0004
2975.00,-0.0003
2974.00,-0.0003
2973.00,-0.0003
2972.00,-0.0003
2971.00,-0.0002
2970.00,-0.0001
2969.00,0.0001
2968.00,0.0003
2967.00,0.0004
2966.00,0.0006
2965.00,0.0007
2964.00,0.0008
2963.00,0.0009
2962.00,0.0011
2961.00,0.0012
2960.00,0.0013
2959.00,0.0014
2958.00,0.0015
2957.00,0.0016
2956.00,0.0017
2955.00,0.0019
2954.00,0.0020
2953.00,0.0022
2952.00,0.0024
2951.00,0.0025
2950.00,0.0027
2949.00,0.0029
2948.00,0.0030
2947.00,0.0032
2946.00,0.0035
2945.00,0.0037
2944.00,0.0040
2943.00,0.0042
2942.00,0.0045
2941.00,0.0047
2940.00,0.0050
2939.00,0.0054
2938.00,0.0057
2937.00,0.0060
2936.00,0.0064
2935.00,0.0067
2934.00,0.0071
2933.00,0.0074
2932.00,0.0078
2931.00,0.0082
2930.00,0.0086
2929.00,0.0090
2928.00,0.0093
2927.00,0.0096
2926.00,0.0099
2925.00,0.0101
2924.00,0.0103
2923.00,0.0104
2922.00,0.0105
2921.00,0.0105
2920.00,0.0105
2919.00,0.0104
2918.00,0.0103
2917.00,0.0101
2916.00,0.0100
2915.00,0.0097
2914.00,0.0095
2913.00,0.0092
2912.00,0.0090
2911.00,0.0087
2910.00,0.0084
2909.00,0.0081
2908.00,0.0079
2907.00,0.0076
2906.00,0.0073
2905.00,0.0070
2904.00,0.0068
2903.00,0.0065
2902.00,0.0062
2901.00,0.0060
2900.00,0.0057
2899.00,0.0054
2898.00,0.0052
2897.00,0.0050
2896.00,0.0048
2895.00,0.0046
2894.00,0.0044
2893.00,0.0042
2892.00,0.0041
2891.00,0.0039
2890.00,0.0038
2889.00,0.0037
2888.00,0.0036
2887.00,0.0035
2886.00,0.0034
2885.00,0.0033
2884.00,0.0032
2883.00,0.0032
2882.00,0.0031
2881.00,0.0031
2880.00,0.0031
2879.00,0.0031
2878.00,0.0030
2877.00,0.0030
2876.00,0.0030
2875.00,0.0030
2874.00,0.0029
2873.00,0.0029
2872.00,0.0028
2871.00,0.0028
2870.00,0.0028
2869.00,0.0029
2868.00,0.0029
2867.00,0.0029
2866.00,0.0030
2865.00,0.0030
2864.00,0.0031
2863.00,0.0032
2862.00,0.0033
2861.00,0.0035
2860.00,0.0037
2859.00,0.0039
2858.00,0.0041
2857.00,0.0043
2856.00,0.0045
2855.00,0.0047
2854.00,0.0049
2853.00,0.0050
2852.00,0.0052
2851.00,0.0053
2850.00,0.0053
2849.00,0.0053
2848.00,0.0053
2847.00,0.0052
2846.00,0.0050
2845.00,0.0048
2844.00,0.0046
2843.00,0.0043
2842.00,0.0040
2841.00,0.0038
2840.00,0.0035
2839.00,0.0032
2838.00,0.0030
2837.00,0.0028
2836.00,0.0026
2835.00,0.0024
2834.00,0.0022
2833.00,0.0021
2832.00,0.0020
2831.00,0.0019
2830.00,0.0018
2829.00,0.0017
2828.00,0.0017
2827.00,0.0017
2826.00,0.0016
2825.00,0.0016
2824.00,0.0016
2823.00,0.0015
2822.00,0.0015
2821.00,0.0015
2820.00,0.0015
2819.00,0.0015
2818.00,0.0015
2817.00,0.0014
2816.00,0.0014
2815.00,0.0014
2814.00,0.0014
2813.00,0.0014
2812.00,0.0014
2811.00,0.0014
2810.00,0.0014
2809.00,0.0014
2808.00,0.0014
2807.00,0.0014
2806.00,0.0013
2805.00,0.0013
2804.00,0.0013
2803.00,0.0013
2802.00,0.0013
2801.00,0.0013
2800.00,0.0013
2799.00,0.0013
2798.00,0.0013
2797.00,0.0013
2796.00,0.0013
2795.00,0.0013
2794.00,0.0013
2793.00,0.0013
2792.00,0.0013
2791.00,0.0013
2790.00,0.0012
2789.00,0.0012
2788.00,0.0012
2787.00,0.0012
2786.00,0.0012
2785.00,0.0012
2784.00,0.0012
2783.00,0.0012
2782.00,0.0012
2781.00,0.0012
2780.00,0.0012
2779.00,0.0012
2778.00,0.0012
2777.00,0.0012
2776.00,0.0012
2775.00,0.0012
2774.00,0.0012
2773.00,0.0012
2772.00,0.0012
2771.00,0.0012
2770.00,0.0012
2769.00,0.0012
2768.00,0.0012
2767.00,0.0011
2766.00,0.0011
2765.00,0.0011
2764.00,0.0011
2763.00,0.0011
2762.00,0.0011
2761.00,0.0011
2760.00,0.0011
2759.00,0.0011
2758.00,0.0011
2757.00,0.0011
2756.00,0.0011
2755.00,0.0011
2754.00,0.0011
2753.00,0.0011
2752.00,0.0012
2751.00,0.0012
2750.00,0.0012
2749.00,0.0012
2748.00,0.0012
2747.00,0.0012
2746.00,0.0012
2745.00,0.0012
2744.00,0.0011
2743.00,0.0011
2742.00,0.0011
2741.00,0.0011
2740.00,0.0011
2739.00,0.0011
2738.00,0.0011
2737.00,0.0011
2736.00,0.0011
2735.00,0.0011
2734.00,0.0011
2733.00,0.0011
2732.00,0.0011
2731.00,0.0012
2730.00,0.0012
2729.00,0.0012
2728.00,0.0012
2727.00,0.0012
2726.00,0.0012
2725.00,0.0012
2724.00,0.0012
2723.00,0.0012
2722.00,0.0011
2721.00,0.0011
2720.00,0.0011
2719.00,0.0011
2718.00,0.0011
2717.00,0.0011
2716.00,0.0011
2715.00,0.0011
2714.00,0.0011
2713.00,0.0011
2712.00,0.0012
2711.00,0.0012
2710.00,0.0011
2709.00,0.0011
2708.00,0.0011
2707.00,0.0011
2706.00,0.0011
2705.00,0.0011
2704.00,0.0011
2703.00,0.0011
2702.00,0.0011
2701.00,0.0011
2700.00,0.0011
2699.00,0.0011
2698.00,0.0011
2697.00,0.0011
2696.00,0.0011
2695.00,0.0011
2694.00,0.0012
2693.00,0.0012
2692.00,0.0011
2691.00,0.0011
2690.00,0.0011
2689.00,0.0011
2688.00,0.0011
2687.00,0.0011
2686.00,0.0011
2685.00,0.0011
2684.00,0.0011
2683.00,0.0011
2682.00,0.0011
2681.00,0.0011
2680.00,0.0011
2679.00,0.0011
2678.00,0.0011
2677.00,0.0011
2676.00,0.0011
2675.00,0.0011
2674.00,0.0012
2673.00,0.0012
2672.00,0.0012
2671.00,0.0012
2670.00,0.0012
2669.00,0.0012
2668.00,0.0012
2667.00,0.0012
2666.00,0.0012
2665.00,0.0012
2664.00,0.0012
2663.00,0.0012
2662.00,0.0013
2661.00,0.0013
2660.00,0.0013
2659.00,0.0014
2658.00,0.0014
2657.00,0.0014
2656.00,0.0014
2655.00,0.0014
2654.00,0.0014
2653.00,0.0014
2652.00,0.0014
2651.00,0.0014
2650.00,0.0014
2649.00,0.0014
2648.00,0.0014
2647.00,0.0014
2646.00,0.0014
2645.00,0.0014
2644.00,0.0014
2643.00,0.0014
2642.00,0.0014
2641.00,0.0014
2640.00,0.0014
2639.00,0.0014
2638.00,0.0014
2637.00,0.0014
2636.00,0.0014
2635.00,0.0014
2634.00,0.0014
2633.00,0.0014
2632.00,0.0014
2631.00,0.0014
2630.00,0.0014
2629.00,0.0014
2628.00,0.0014
2627.00,0.0014
2626.00,0.0013
2625.00,0.0013
2624.00,0.0013
2623.00,0.0013
2622.00,0.0014
2621.00,0.0014
2620.00,0.0014
2619.00,0.0014
2618.00,0.0014
2617.00,0.0013
2616.00,0.0013
2615.00,0.0013
2614.00,0.0013
2613.00,0.0013
2612.00,0.0013
2611.00,0.0013
2610.00,0.0013
2609.00,0.0013
2608.00,0.0013
2607.00,0.0013
2606.00,0.0013
2605.00,0.0012
2604.00,0.0012
2603.00,0.0012
2602.00,0.0013
2601.00,0.0013
2600.00,0.0012
2599.00,0.0012
2598.00,0.0012
2597.00,0.0012
2596.00,0.0012
2595.00,0.0012
2594.00,0.0011
2593.00,0.0011
2592.00,0.0011
2591.00,0.0011
2590.00,0.0012
2589.00,0.0012
2588.00,0.0012
2587.00,0.0011
2586.00,0.0011
2585.00,0.0011
2584.00,0.0011
2583.00,0.0011
2582.00,0.0011
2581.00,0.0011
2580.00,0.0011
2579.00,0.0011
2578.00,0.0011
2577.00,0.0011
2576.00,0.0011
2575.00,0.0011
2574.00,0.0011
2573.00,0.0010
2572.00,0.0010
2571.00,0.0010
2570.00,0.0011
2569.00,0.0011
2568.00,0.0011
2567.00,0.0011
2566.00,0.0011
2565.00,0.0011
2564.00,0.0011
2563.00,0.0010
2562.00,0.0010
2561.00,0.0010
2560.00,0.0010
2559.00,0.0010
2558.00,0.0010
2557.00,0.0010
2556.00,0.0010
2555.00,0.0010
2554.00,0.0010
2553.00,0.0010
2552.00,0.0010
2551.00,0.0011
2550.00,0.0011
2549.00,0.0011
2548.00,0.0011
2547.00,0.0010
2546.00,0.0010
2545.00,0.0010
2544.00,0.0010
2543.00,0.0010
2542.00,0.0010
2541.00,0.0010
2540.00,0.0010
2539.00,0.0010
2538.00,0.0010
2537.00,0.0009
2536.00,0.0009
2535.00,0.0009
2534.00,0.0009
2533.00,0.0010
2532.00,0.0010
2531.00,0.0010
2530.00,0.0010
2529.00,0.0010
2528.00,0.0010
2527.00,0.0009
2526.00,0.0009
2525.00,0.0009
2524.00,0.0009
2523.00,0.0009
2522.00,0.0009
2521.00,0.0010
2520.00,0.0010
2519.00,0.0010
2518.00,0.0010
2517.00,0.0010
2516.00,0.0010
2515.00,0.0009
2514.00,0.0009
2513.00,0.0009
2512.00,0.0009
2511.00,0.0009
2510.00,0.0009
2509.00,0.0009
2508.00,0.0009
2507.00,0.0009
2506.00,0.0009
2505.00,0.0009
2504.00,0.0009
2503.00,0.0009
2502.00,0.0009
2501.00,0.0009
2500.00,0.0009
2499.00,0.0009
2498.00,0.0009
2497.00,0.0009
2496.00,0.0009
2495.00,0.0009
2494.00,0.0009
2493.00,0.0009
2492.00,0.0009
2491.00,0.0009
2490.00,0.0009
2489.00,0.0009
2488.00,0.0009
2487.00,0.0009
2486.00,0.0009
2485.00,0.0009
2484.00,0.0009
2483.00,0.0009
2482.00,0.0009
2481.00,0.0009
2480.00,0.0009
2479.00,0.0008
2478.00,0.0008
2477.00,0.0008
2476.00,0.0008
2475.00,0.0008
2474.00,0.0008
2473.00,0.0008
2472.00,0.0008
2471.00,0.0008
2470.00,0.0009
2469.00,0.0009
2468.00,0.0009
2467.00,0.0009
2466.00,0.0008
2465.00,0.0008
2464.00,0.0008
2463.00,0.0009
2462.00,0.0009
2461.00,0.0009
2460.00,0.0009
2459.00,0.0009
2458.00,0.0009
2457.00,0.0009
2456.00,0.0009
2455.00,0.0010
2454.00,0.0010
2453.00,0.0010
2452.00,0.0010
2451.00,0.0009
2450.00,0.0009
2449.00,0.0009
2448.00,0.0009
2447.00,0.0008
2446.00,0.0008
2445.00,0.0008
2444.00,0.0008
2443.00,0.0008
2442.00,0.0008
2441.00,0.0008
2440.00,0.0008
2439.00,0.0007
2438.00,0.0007
2437.00,0.0008
2436.00,0.0008
2435.00,0.0008
2434.00,0.0008
2433.00,0.0008
2432.00,0.0008
2431.00,0.0008
2430.00,0.0008
2429.00,0.0007
2428.00,0.0007
2427.00,0.0007
2426.00,0.0007
2425.00,0.0007
2424.00,0.0007
2423.00,0.0007
2422.00,0.0007
2421.00,0.0007
2420.00,0.0007
2419.00,0.0007
2418.00,0.0007
2417.00,0.0007
2416.00,0.0007
2415.00,0.0006
2414.00,0.0006
2413.00,0.0007
2412.00,0.0007
2411.00,0.0007
2410.00,0.0007
2409.00,0.0007
2408.00,0.0006
2407.00,0.0006
2406.00,0.0006
2405.00,0.0006
2404.00,0.0006
2403.00,0.0006
2402.00,0.0006
2401.00,0.0006
2400.00,0.0006
2399.00,0.0005
2398.00,0.0005
2397.00,0.0006
2396.00,0.0006
2395.00,0.0006
2394.00,0.0006
2393.00,0.0005
2392.00,0.0005
2391.00,0.0005
2390.00,0.0005
2389.00,0.0005
2388.00,0.0005
2387.00,0.0005
2386.00,0.0006
2385.00,0.0006
2384.00,0.0006
2383.00,0.0006
2382.00,0.0006
2381.00,0.0006
2380.00,0.0006
2379.00,0.0006
2378.00,0.0006
2377.00,0.0006
2376.00,0.0006
2375.00,0.0006
2374.00,0.0006
2373.00,0.0006
2372.00,0.0006
2371.00,0.0006
2370.00,0.0006
2369.00,0.0006
2368.00,0.0006
2367.00,0.0006
2366.00,0.0006
2365.00,0.0007
2364.00,0.0007
2363.00,0.0007
2362.00,0.0008
2361.00,0.0008
2360.00,0.0008
2359.00,0.0008
2358.00,0.0008
2357.00,0.0008
2356.00,0.0008
2355.00,0.0008
2354.00,0.0008
2353.00,0.0008
2352.00,0.0008
2351.00,0.0008
2350.00,0.0008
2349.00,0.0009
2348.00,0.0009
2347.00,0.0009
2346.00,0.0010
2345.00,0.0010
2344.00,0.0011
2343.00,0.0011
2342.00,0.0010
2341.00,0.0010
2340.00,0.0010
2339.00,0.0010
2338.00,0.0010
2337.00,0.0010
2336.00,0.0010
2335.00,0.0010
2334.00,0.0010
2333.00,0.0009
2332.00,0.0009
2331.00,0.0009
2330.00,0.0010
2329.00,0.0010
2328.00,0.0012
2327.00,0.0014
2326.00,0.0016
2325.00,0.0017
2324.00,0.0017
2323.00,0.0016
2322.00,0.0015
2321.00,0.0014
2320.00,0.0013
2319.00,0.0012
2318.00,0.0011
2317.00,0.0011
2316.00,0.0010
2315.00,0.0010
2314.00,0.0010
2313.00,0.0011
2312.00,0.0011
2311.00,0.0011
2310.00,0.0011
2309.00,0.0011
2308.00,0.0011
2307.00,0.0011
2306.00,0.0011
2305.00,0.0011
2304.00,0.0011
2303.00,0.0010
2302.00,0.0010
2301.00,0.0010
2300.00,0.0011
2299.00,0.0011
2298.00,0.0011
2297.00,0.0011
2296.00,0.0011
2295.00,0.0012
2294.00,0.0012
2293.00,0.0013
2292.00,0.0013
2291.00,0.0013
2290.00,0.0013
2289.00,0.0014
2288.00,0.0014
2287.00,0.0015
2286.00,0.0015
2285.00,0.0015
2284.00,0.0014
2283.00,0.0014
2282.00,0.0013
2281.00,0.0013
2280.00,0.0013
2279.00,0.0013
2278.00,0.0013
2277.00,0.0012
2276.00,0.0012
2275.00,0.0012
2274.00,0.0012
2273.00,0.0012
2272.00,0.0012
2271.00,0.0012
2270.00,0.0012
2269.00,0.0011
2268.00,0.0011
2267.00,0.0010
2266.00,0.0010
2265.00,0.0009
2264.00,0.0009
2263.00,0.0009
2262.00,0.0009
2261.00,0.0009
2260.00,0.0010
2259.00,0.0010
2258.00,0.0009
2257.00,0.0009
2256.00,0.0008
2255.00,0.0008
2254.00,0.0008
2253.00,0.0009
2252.00,0.0009
2251.00,0.0010
2250.00,0.0010
2249.00,0.0010
2248.00,0.0009
2247.00,0.0009
2246.00,0.0008
2245.00,0.0008
2244.00,0.0008
2243.00,0.0009
2242.00,0.0009
2241.00,0.0009
2240.00,0.0009
2239.00,0.0010
2238.00,0.0010
2237.00,0.0010
2236.00,0.0009
2235.00,0.0009
2234.00,0.0008
2233.00,0.0008
2232.00,0.0009
2231.00,0.0009
2230.00,0.0008
2229.00,0.0008
2228.00,0.0007
2227.00,0.0007
2226.00,0.0007
2225.00,0.0008
2224.00,0.0008
2223.00,0.0009
2222.00,0.0009
2221.00,0.0009
2220.00,0.0009
2219.00,0.0007
2218.00,0.0006
2217.00,0.0005
2216.00,0.0005
2215.00,0.0006
2214.00,0.0007
2213.00,0.0007
2212.00,0.0007
2211.00,0.0007
2210.00,0.0007
2209.00,0.0008
2208.00,0.0008
2207.00,0.0008
2206.00,0.0008
2205.00,0.0008
2204.00,0.0007
2203.00,0.0007
2202.00,0.0007
2201.00,0.0007
2200.00,0.0007
2199.00,0.0007
2198.00,0.0007
2197.00,0.0007
2196.00,0.0008
2195.00,0.0008
2194.00,0.0007
2193.00,0.0007
2192.00,0.0006
2191.00,0.0007
2190.00,0.0008
2189.00,0.0009
2188.00,0.0009
2187.00,0.0008
2186.00,0.0008
2185.00,0.0007
2184.00,0.0007
2183.00,0.0007
2182.00,0.0007
2181.00,0.0007
2180.00,0.0007
2179.00,0.0006
2178.00,0.0006
2177.00,0.0005
2176.00,0.0004
2175.00,0.0005
2174.00,0.0006
2173.00,0.0008
2172.00,0.0010
2171.00,0.0012
2170.00,0.0013
2169.00,0.0014
2168.00,0.0014
2167.00,0.0013
2166.00,0.0012
2165.00,0.0012
2164.00,0.0013
2163.00,0.0014
2162.00,0.0012
2161.00,0.0007
2160.00,-0.0002
2159.00,-0.0010
2158.00,-0.0014
2157.00,-0.0014
2156.00,-0.0012
2155.00,-0.0009
2154.00,-0.0007
2153.00,-0.0006
2152.00,-0.0005
2151.00,-0.0005
2150.00,-0.0004
2149.00,-0.0004
2148.00,-0.0003
2147.00,-0.0004
2146.00,-0.0005
2145.00,-0.0005
2144.00,-0.0005
2143.00,-0.0004
2142.00,-0.0003
2141.00,-0.0002
2140.00,-0.0001
2139.00,-0.0002
2138.00,-0.0003
2137.00,-0.0004
2136.00,-0.0006
2135.00,-0.0007
2134.00,-0.0007
2133.00,-0.0007
2132.00,-0.0005
2131.00,-0.0004
2130.00,-0.0003
2129.00,-0.0002
2128.00,-0.0001
2127.00,-0.0001
2126.00,-0.0001
2125.00,-0.0000
2124.00,0.0000
2123.00,0.0001
2122.00,0.0002
2121.00,0.0002
2120.00,0.0002
2119.00,0.0002
2118.00,0.0003
2117.00,0.0004
2116.00,0.0005
2115.00,0.0005
2114.00,0.0005
2113.00,0.0005
2112.00,0.0005
2111.00,0.0005
2110.00,0.0005
2109.00,0.0005
2108.00,0.0005
2107.00,0.0005
2106.00,0.0005
2105.00,0.0005
2104.00,0.0005
2103.00,0.0005
2102.00,0.0005
2101.00,0.0006
2100.00,0.0006
2099.00,0.0006
2098.00,0.0004
2097.00,0.0003
2096.00,0.0001
2095.00,0.0001
2094.00,0.0002
2093.00,0.0003
2092.00,0.0004
2091.00,0.0004
2090.00,0.0004
2089.00,0.0004
2088.00,0.0004
2087.00,0.0005
2086.00,0.0006
2085.00,0.0006
2084.00,0.0006
2083.00,0.0006
2082.00,0.0005
2081.00,0.0006
2080.00,0.0006
2079.00,0.0006
2078.00,0.0006
2077.00,0.0006
2076.00,0.0007
2075.00,0.0007
2074.00,0.0007
2073.00,0.0006
2072.00,0.0006
2071.00,0.0005
2070.00,0.0005
2069.00,0.0006
2068.00,0.0006
2067.00,0.0006
2066.00,0.0006
2065.00,0.0005
2064.00,0.0005
2063.00,0.0005
2062.00,0.0005
2061.00,0.0005
2060.00,0.0005
2059.00,0.0005
2058.00,0.0005
2057.00,0.0004
2056.00,0.0004
2055.00,0.0004
2054.00,0.0005
2053.00,0.0008
2052.00,0.0010
2051.00,0.0011
2050.00,0.0010
2049.00,0.0008
2048.00,0.0006
2047.00,0.0005
2046.00,0.0005
2045.00,0.0005
2044.00,0.0006
2043.00,0.0007
2042.00,0.0007
2041.00,0.0007
2040.00,0.0007
2039.00,0.0007
2038.00,0.0007
2037.00,0.0007
2036.00,0.0006
2035.00,0.0005
2034.00,0.0004
2033.00,0.0003
2032.00,0.0003
2031.00,0.0004
2030.00,0.0004
2029.00,0.0003
2028.00,0.0001
2027.00,-0.0000
2026.00,-0.0001
2025.00,-0.0000
2024.00,0.0001
2023.00,0.0002
2022.00,0.0003
2021.00,0.0003
2020.00,0.0003
2019.00,0.0003
2018.00,0.0003
2017.00,0.0003
2016.00,0.0004
2015.00,0.0003
2014.00,0.0002
2013.00,0.0001
2012.00,0.0001
2011.00,-0.0000
2010.00,-0.0001
2009.00,-0.0001
2008.00,-0.0002
2007.00,-0.0002
2006.00,-0.0003
2005.00,-0.0002
2004.00,-0.0002
2003.00,-0.0001
2002.00,0.0000
2001.00,0.0001
2000.00,0.0002
1999.00,0.0003
1998.00,0.0003
1997.00,0.0003
1996.00,0.0003
1995.00,0.0003
1994.00,0.0004
1993.00,0.0004
1992.00,0.0004
1991.00,0.0004
1990.00,0.0005
1989.00,0.0006
1988.00,0.0007
1987.00,0.0008
1986.00,0.0009
1985.00,0.0010
1984.00,0.0009
1983.00,0.0010
1982.00,0.0011
1981.00,0.0012
1980.00,0.0011
1979.00,0.0008
1978.00,0.0004
1977.00,0.0002
1976.00,-0.0000
1975.00,-0.0001
1974.00,-0.0001
1973.00,-0.0001
1972.00,-0.0001
1971.00,-0.0001
1970.00,-0.0001
1969.00,-0.0000
1968.00,0.0001
1967.00,0.0002
1966.00,0.0003
1965.00,0.0003
1964.00,0.0003
1963.00,0.0004
1962.00,0.0004
1961.00,0.0004
1960.00,0.0004
1959.00,0.0003
1958.00,0.0004
1957.00,0.0005
1956.00,0.0006
1955.00,0.0008
1954.00,0.0008
1953.00,0.0009
1952.00,0.0009
1951.00,0.0010
1950.00,0.0011
1949.00,0.0013
1948.00,0.0013
1947.00,0.0013
1946.00,0.0013
1945.00,0.0013
1944.00,0.0013
1943.00,0.0013
1942.00,0.0013
1941.00,0.0012
1940.00,0.0012
1939.00,0.0011
1938.00,0.0011
1937.00,0.0011
1936.00,0.0010
1935.00,0.0009
1934.00,0.0009
1933.00,0.0008
1932.00,0.0007
1931.00,0.0007
1930.00,0.0006
1929.00,0.0005
1928.00,0.0005
1927.00,0.0004
1926.00,0.0003
1925.00,0.0003
1924.00,0.0004
1923.00,0.0004
1922.00,0.0005
1921.00,0.0005
1920.00,0.0005
1919.00,0.0004
1918.00,0.0004
1917.00,0.0003
1916.00,0.0003
1915.00,0.0004
1914.00,0.0004
1913.00,0.0004
1912.00,0.0004
1911.00,0.0004
1910.00,0.0004
1909.00,0.0004
1908.00,0.0004
1907.00,0.0004
1906.00,0.0004
1905.00,0.0003
1904.00,0.0003
1903.00,0.0004
1902.00,0.0005
1901.00,0.0005
1900.00,0.0006
1899.00,0.0007
1898.00,0.0007
1897.00,0.0007
1896.00,0.0007
1895.00,0.0007
1894.00,0.0008
1893.00,0.0008
1892.00,0.0009
1891.00,0.0010
1890.00,0.0011
1889.00,0.0011
1888.00,0.0011
1887.00,0.0011
1886.00,0.0011
1885.00,0.0011
1884.00,0.0011
1883.00,0.0012
1882.00,0.0012
1881.00,0.0013
1880.00,0.0013
1879.00,0.0013
1878.00,0.0013
1877.00,0.0013
1876.00,0.0013
1875.00,0.0013
1874.00,0.0013
1873.00,0.0013
1872.00,0.0014
1871.00,0.0014
1870.00,0.0014
1869.00,0.0014
1868.00,0.0014
1867.00,0.0014
1866.00,0.0014
1865.00,0.0014
1864.00,0.0013
1863.00,0.0013
1862.00,0.0012
1861.00,0.0011
1860.00,0.0010
1859.00,0.0010
1858.00,0.0009
1857.00,0.0009
1856.00,0.0009
1855.00,0.0008
1854.00,0.0008
1853.00,0.0007
1852.00,0.0007
1851.00,0.0006
1850.00,0.0006
1849.00,0.0006
1848.00,0.0006
1847.00,0.0006
1846.00,0.0006
1845.00,0.0006
1844.00,0.0006
1843.00,0.0006
1842.00,0.0006
1841.00,0.0006
1840.00,0.0006
1839.00,0.0006
1838.00,0.0006
1837.00,0.0006
1836.00,0.0006
1835.00,0.0006
1834.00,0.0006
1833.00,0.0006
1832.00,0.0007
1831.00,0.0007
1830.00,0.0008
1829.00,0.0008
1828.00,0.0008
1827.00,0.0008
1826.00,0.0009
1825.00,0.0009
1824.00,0.0009
1823.00,0.0010
1822.00,0.0011
1821.00,0.0011
1820.00,0.0011
1819.00,0.0010
1818.00,0.0010
1817.00,0.0010
1816.00,0.0011
1815.00,0.0012
1814.00,0.0013
1813.00,0.0013
1812.00,0.0014
1811.00,0.0015
1810.00,0.0015
1809.00,0.0016
1808.00,0.0016
1807.00,0.0017
1806.00,0.0017
1805.00,0.0018
1804.00,0.0018
1803.00,0.0019
1802.00,0.0019
1801.00,0.0019
1800.00,0.0019
1799.00,0.0019
1798.00,0.0019
1797.00,0.0018
1796.00,0.0018
1795.00,0.0017
1794.00,0.0016
1793.00,0.0016
1792.00,0.0015
1791.00,0.0015
1790.00,0.0015
1789.00,0.0014
1788.00,0.0014
1787.00,0.0014
1786.00,0.0013
1785.00,0.0013
1784.00,0.0013
1783.00,0.0013
1782.00,0.0013
1781.00,0.0013
1780.00,0.0014
1779.00,0.0014
1778.00,0.0015
1777.00,0.0015
1776.00,0.0015
1775.00,0.0015
1774.00,0.0015
1773.00,0.0015
1772.00,0.0016
1771.00,0.0016
1770.00,0.0016
1769.00,0.0016
1768.00,0.0016
1767.00,0.0016
1766.00,0.0017
1765.00,0.0017
1764.00,0.0018
1763.00,0.0018
1762.00,0.0019
1761.00,0.0019
1760.00,0.0020
1759.00,0.0021
1758.00,0.0022
1757.00,0.0023
1756.00,0.0024
1755.00,0.0025
1754.00,0.0026
1753.00,0.0027
1752.00,0.0029
1751.00,0.0030
1750.00,0.0031
1749.00,0.0033
1748.00,0.0034
1747.00,0.0036
1746.00,0.0037
1745.00,0.0038
1744.00,0.0040
1743.00,0.0040
1742.00,0.0041
1741.00,0.0042
1740.00,0.0042
1739.00,0.0042
1738.00,0.0042
1737.00,0.0042
1736.00,0.0042
1735.00,0.0041
1734.00,0.0040
1733.00,0.0039
1732.00,0.0038
1731.00,0.0038
1730.00,0.0038
1729.00,0.0037
1728.00,0.0037
1727.00,0.0036
1726.00,0.0036
1725.00,0.0035
1724.00,0.0034
1723.00,0.0033
1722.00,0.0032
1721.00,0.0031
1720.00,0.0031
1719.00,0.0031
1718.00,0.0030
1717.00,0.0029
1716.00,0.0028
1715.00,0.0028
1714.00,0.0028
1713.00,0.0028
1712.00,0.0028
1711.00,0.0028
1710.00,0.0027
1709.00,0.0027
1708.00,0.0027
1707.00,0.0027
1706.00,0.0027
1705.00,0.0027
1704.00,0.0026
1703.00,0.0026
1702.00,0.0026
1701.00,0.0026
1700.00,0.0026
1699.00,0.0026
1698.00,0.0026
1697.00,0.0026
1696.00,0.0026
1695.00,0.0026
1694.00,0.0026
1693.00,0.0027
1692.00,0.0027
1691.00,0.0028
1690.00,0.0028
1689.00,0.0029
1688.00,0.0029
1687.00,0.0030
1686.00,0.0031
1685.00,0.0031
1684.00,0.0031
1683.00,0.0032
1682.00,0.0033
1681.00,0.0033
1680.00,0.0033
1679.00,0.0034
1678.00,0.0034
1677.00,0.0034
1676.00,0.0035
1675.00,0.0035
1674.00,0.0035
1673.00,0.0035
1672.00,0.0035
1671.00,0.0035
1670.00,0.0035
1669.00,0.0035
1668.00,0.0035
1667.00,0.0035
1666.00,0.0036
1665.00,0.0036
1664.00,0.0036
1663.00,0.0036
1662.00,0.0035
1661.00,0.0035
1660.00,0.0034
1659.00,0.0034
1658.00,0.0034
1657.00,0.0034
1656.00,0.0034
1655.00,0.0034
1654.00,0.0033
1653.00,0.0032
1652.00,0.0031
1651.00,0.0031
1650.00,0.0031
1649.00,0.0031
1648.00,0.0030
1647.00,0.0030
1646.00,0.0029
1645.00,0.0029
1644.00,0.0029
1643.00,0.0028
1642.00,0.0028
1641.00,0.0028
1640.00,0.0027
1639.00,0.0027
1638.00,0.0028
1637.00,0.0028
1636.00,0.0027
1635.00,0.0027
1634.00,0.0027
1633.00,0.0027
1632.00,0.0026
1631.00,0.0026
1630.00,0.0026
1629.00,0.0026
1628.00,0.0026
1627.00,0.0026
1626.00,0.0026
1625.00,0.0026
1624.00,0.0026
1623.00,0.0026
1622.00,0.0026
1621.00,0.0026
1620.00,0.0026
1619.00,0.0026
1618.00,0.0026
1617.00,0.0026
1616.00,0.0026
1615.00,0.0027
1614.00,0.0028
1613.00,0.0029
1612.00,0.0031
1611.00,0.0034
1610.00,0.0037
1609.00,0.0042
1608.00,0.0048
1607.00,0.0056
1606.00,0.0066
1605.00,0.0078
1604.00,0.0089
1603.00,0.0100
1602.00,0.0107
1601.00,0.0111
1600.00,0.0109
1599.00,0.0103
1598.00,0.0093
1597.00,0.0082
1596.00,0.0072
1595.00,0.0064
1594.00,0.0057
1593.00,0.0051
1592.00,0.0047
1591.00,0.0044
1590.00,0.0041
1589.00,0.0039
1588.00,0.0039
1587.00,0.0041
1586.00,0.0044
1585.00,0.0048
1584.00,0.0051
1583.00,0.0052
1582.00,0.0051
1581.00,0.0047
1580.00,0.0043
1579.00,0.0038
1578.00,0.0034
1577.00,0.0031
1576.00,0.0028
1575.00,0.0026
1574.00,0.0025
1573.00,0.0024
1572.00,0.0023
1571.00,0.0022
1570.00,0.0022
1569.00,0.0021
1568.00,0.0021
1567.00,0.0020
1566.00,0.0020
1565.00,0.0020
1564.00,0.0020
1563.00,0.0020
1562.00,0.0020
1561.00,0.0020
1560.00,0.0020
1559.00,0.0020
1558.00,0.0021
1557.00,0.0021
1556.00,0.0021
1555.00,0.0021
1554.00,0.0021
1553.00,0.0022
1552.00,0.0022
1551.00,0.0022
1550.00,0.0023
1549.00,0.0023
1548.00,0.0024
1547.00,0.0024
1546.00,0.0025
1545.00,0.0025
1544.00,0.0025
1543.00,0.0026
1542.00,0.0026
1541.00,0.0026
1540.00,0.0025
1539.00,0.0025
1538.00,0.0024
1537.00,0.0023
1536.00,0.0023
1535.00,0.0023
1534.00,0.0022
1533.00,0.0022
1532.00,0.0021
1531.00,0.0021
1530.00,0.0020
1529.00,0.0020
1528.00,0.0020
1527.00,0.0019
1526.00,0.0019
1525.00,0.0019
1524.00,0.0019
1523.00,0.0019
1522.00,0.0019
1521.00,0.0019
1520.00,0.0019
1519.00,0.0019
1518.00,0.0020
1517.00,0.0020
1516.00,0.0020
1515.00,0.0020
1514.00,0.0020
1513.00,0.0020
1512.00,0.0021
1511.00,0.0021
1510.00,0.0022
1509.00,0.0023
1508.00,0.0023
1507.00,0.0024
1506.00,0.0025
1505.00,0.0027
1504.00,0.0029
1503.00,0.0032
1502.00,0.0036
1501.00,0.0041
1500.00,0.0049
1499.00,0.0062
1498.00,0.0082
1497.00,0.0112
1496.00,0.0153
1495.00,0.0198
1494.00,0.0237
1493.00,0.0262
1492.00,0.0266
1491.00,0.0248
1490.00,0.0212
1489.00,0.0171
1488.00,0.0137
1487.00,0.0111
1486.00,0.0093
1485.00,0.0078
1484.00,0.0067
1483.00,0.0059
1482.00,0.0052
1481.00,0.0047
1480.00,0.0043
1479.00,0.0041
1478.00,0.0039
1477.00,0.0037
1476.00,0.0037
1475.00,0.0036
1474.00,0.0035
1473.00,0.0035
1472.00,0.0036
1471.00,0.0036
1470.00,0.0037
1469.00,0.0038
1468.00,0.0040
1467.00,0.0041
1466.00,0.0042
1465.00,0.0043
1464.00,0.0044
1463.00,0.0046
1462.00,0.0048
1461.00,0.0052
1460.00,0.0058
1459.00,0.0066
1458.00,0.0083
1457.00,0.0111
1456.00,0.0149
1455.00,0.0189
1454.00,0.0227
1453.00,0.0258
1452.00,0.0275
1451.00,0.0275
1450.00,0.0263
1449.00,0.0243
1448.00,0.0222
1447.00,0.0203
1446.00,0.0188
1445.00,0.0175
1444.00,0.0163
1443.00,0.0150
1442.00,0.0139
1441.00,0.0129
1440.00,0.0120
1439.00,0.0112
1438.00,0.0104
1437.00,0.0095
1436.00,0.0086
1435.00,0.0078
1434.00,0.0072
1433.00,0.0066
1432.00,0.0062
1431.00,0.0057
1430.00,0.0054
1429.00,0.0051
1428.00,0.0048
1427.00,0.0047
1426.00,0.0045
1425.00,0.0044
1424.00,0.0043
1423.00,0.0042
1422.00,0.0041
1421.00,0.0040
1420.00,0.0039
1419.00,0.0039
1418.00,0.0038
1417.00,0.0037
1416.00,0.0036
1415.00,0.0036
1414.00,0.0035
1413.00,0.0034
1412.00,0.0034
1411.00,0.0033
1410.00,0.0033
1409.00,0.0032
1408.00,0.0032
1407.00,0.0031
1406.00,0.0031
1405.00,0.0031
1404.00,0.0030
1403.00,0.0030
1402.00,0.0030
1401.00,0.0029
1400.00,0.0029
1399.00,0.0028
1398.00,0.0028
1397.00,0.0028
1396.00,0.0029
1395.00,0.0029
1394.00,0.0030
1393.00,0.0031
1392.00,0.0032
1391.00,0.0034
1390.00,0.0036
1389.00,0.0037
1388.00,0.0039
1387.00,0.0042
1386.00,0.0044
1385.00,0.0045
1384.00,0.0047
1383.00,0.0049
1382.00,0.0051
1381.00,0.0052
1380.00,0.0054
1379.00,0.0056
1378.00,0.0059
1377.00,0.0061
1376.00,0.0063
1375.00,0.0065
1374.00,0.0066
1373.00,0.0067
1372.00,0.0067
1371.00,0.0067
1370.00,0.0068
1369.00,0.0068
1368.00,0.0068
1367.00,0.0067
1366.00,0.0067
1365.00,0.0067
1364.00,0.0067
1363.00,0.0067
1362.00,0.0066
1361.00,0.0065
1360.00,0.0065
1359.00,0.0064
1358.00,0.0063
1357.00,0.0062
1356.00,0.0062
1355.00,0.0061
1354.00,0.0061
1353.00,0.0061
1352.00,0.0061
1351.00,0.0061
1350.00,0.0061
1349.00,0.0061
1348.00,0.0061
1347.00,0.0061
1346.00,0.0060
1345.00,0.0059
1344.00,0.0058
1343.00,0.0058
1342.00,0.0057
1341.00,0.0056
1340.00,0.0055
1339.00,0.0055
1338.00,0.0055
1337.00,0.0055
1336.00,0.0056
1335.00,0.0057
1334.00,0.0058
1333.00,0.0059
1332.00,0.0061
1331.00,0.0062
1330.00,0.0064
1329.00,0.0065
1328.00,0.0065
1327.00,0.0065
1326.00,0.0064
1325.00,0.0063
1324.00,0.0063
1323.00,0.0062
1322.00,0.0062
1321.00,0.0061
1320.00,0.0061
1319.00,0.0061
1318.00,0.0062
1317.00,0.0062
1316.00,0.0063
1315.00,0.0063
1314.00,0.0064
1313.00,0.0064
1312.00,0.0064
1311.00,0.0064
1310.00,0.0064
1309.00,0.0064
1308.00,0.0063
1307.00,0.0062
1306.00,0.0061
1305.00,0.0060
1304.00,0.0060
1303.00,0.0059
1302.00,0.0058
1301.00,0.0058
1300.00,0.0057
1299.00,0.0057
1298.00,0.0057
1297.00,0.0057
1296.00,0.0057
1295.00,0.0057
1294.00,0.0057
1293.00,0.0058
1292.00,0.0058
1291.00,0.0058
1290.00,0.0057
1289.00,0.0057
1288.00,0.0056
1287.00,0.0056
1286.00,0.0055
1285.00,0.0055
1284.00,0.0054
1283.00,0.0054
1282.00,0.0054
1281.00,0.0054
1280.00,0.0053
1279.00,0.0053
1278.00,0.0052
1277.00,0.0051
1276.00,0.0051
1275.00,0.0050
1274.00,0.0049
1273.00,0.0048
1272.00,0.0047
1271.00,0.0046
1270.00,0.0045
1269.00,0.0044
1268.00,0.0044
1267.00,0.0043
1266.00,0.0043
1265.00,0.0042
1264.00,0.0042
1263.00,0.0041
1262.00,0.0041
1261.00,0.0041
1260.00,0.0040
1259.00,0.0040
1258.00,0.0040
1257.00,0.0040
1256.00,0.0040
1255.00,0.0040
1254.00,0.0040
1253.00,0.0040
1252.00,0.0041
1251.00,0.0041
1250.00,0.0041
1249.00,0.0042
1248.00,0.0042
1247.00,0.0042
1246.00,0.0043
1245.00,0.0043
1244.00,0.0043
1243.00,0.0043
1242.00,0.0043
1241.00,0.0043
1240.00,0.0043
1239.00,0.0043
1238.00,0.0042
1237.00,0.0042
1236.00,0.0042
1235.00,0.0042
1234.00,0.0042
1233.00,0.0043
1232.00,0.0043
1231.00,0.0043
1230.00,0.0044
1229.00,0.0044
1228.00,0.0045
1227.00,0.0045
1226.00,0.0046
1225.00,0.0046
1224.00,0.0046
1223.00,0.0047
1222.00,0.0047
1221.00,0.0047
1220.00,0.0047
1219.00,0.0047
1218.00,0.0047
1217.00,0.0047
1216.00,0.0047
1215.00,0.0048
1214.00,0.0048
1213.00,0.0048
1212.00,0.0049
1211.00,0.0050
1210.00,0.0050
1209.00,0.0051
1208.00,0.0052
1207.00,0.0053
1206.00,0.0054
1205.00,0.0055
1204.00,0.0056
1203.00,0.0057
1202.00,0.0059
1201.00,0.0060
1200.00,0.0061
1199.00,0.0062
1198.00,0.0063
1197.00,0.0063
1196.00,0.0064
1195.00,0.0064
1194.00,0.0064
1193.00,0.0064
1192.00,0.0064
1191.00,0.0064
1190.00,0.0065
1189.00,0.0065
1188.00,0.0066
1187.00,0.0068
1186.00,0.0070
1185.00,0.0073
1184.00,0.0076
1183.00,0.0079
1182.00,0.0081
1181.00,0.0081
1180.00,0.0080
1179.00,0.0078
1178.00,0.0074
1177.00,0.0070
1176.00,0.0066
1175.00,0.0062
1174.00,0.0059
1173.00,0.0057
1172.00,0.0056
1171.00,0.0055
1170.00,0.0054
1169.00,0.0054
1168.00,0.0053
1167.00,0.0053
1166.00,0.0052
1165.00,0.0052
1164.00,0.0052
1163.00,0.0053
1162.00,0.0054
1161.00,0.0056
1160.00,0.0058
1159.00,0.0062
1158.00,0.0066
1157.00,0.0070
1156.00,0.0074
1155.00,0.0076
1154.00,0.0076
1153.00,0.0074
1152.00,0.0070
1151.00,0.0065
1150.00,0.0060
1149.00,0.0056
1148.00,0.0052
1147.00,0.0050
1146.00,0.0047
1145.00,0.0046
1144.00,0.0045
1143.00,0.0044
1142.00,0.0043
1141.00,0.0042
1140.00,0.0041
1139.00,0.0040
1138.00,0.0040
1137.00,0.0039
1136.00,0.0039
1135.00,0.0039
1134.00,0.0039
1133.00,0.0039
1132.00,0.0038
1131.00,0.0038
1130.00,0.0039
1129.00,0.0039
1128.00,0.0040
1127.00,0.0041
1126.00,0.0041
1125.00,0.0042
1124.00,0.0042
1123.00,0.0043
1122.00,0.0044
1121.00,0.0045
1120.00,0.0046
1119.00,0.0047
1118.00,0.0048
1117.00,0.0050
1116.00,0.0051
1115.00,0.0052
1114.00,0.0053
1113.00,0.0053
1112.00,0.0054
1111.00,0.0054
1110.00,0.0054
1109.00,0.0054
1108.00,0.0053
1107.00,0.0053
1106.00,0.0052
1105.00,0.0052
1104.00,0.0053
1103.00,0.0053
1102.00,0.0054
1101.00,0.0054
1100.00,0.0054
1099.00,0.0054
1098.00,0.0054
1097.00,0.0055
1096.00,0.0055
1095.00,0.0056
1094.00,0.0056
1093.00,0.0056
1092.00,0.0057
1091.00,0.0057
1090.00,0.0057
1089.00,0.0058
1088.00,0.0058
1087.00,0.0059
1086.00,0.0061
1085.00,0.0062
1084.00,0.0064
1083.00,0.0065
1082.00,0.0067
1081.00,0.0070
1080.00,0.0072
1079.00,0.0073
1078.00,0.0075
1077.00,0.0077
1076.00,0.0080
1075.00,0.0084
1074.00,0.0088
1073.00,0.0092
1072.00,0.0095
1071.00,0.0098
1070.00,0.0100
1069.00,0.0101
1068.00,0.0102
1067.00,0.0101
1066.00,0.0099
1065.00,0.0096
1064.00,0.0093
1063.00,0.0090
1062.00,0.0087
1061.00,0.0084
1060.00,0.0081
1059.00,0.0078
1058.00,0.0076
1057.00,0.0074
1056.00,0.0072
1055.00,0.0071
1054.00,0.0070
1053.00,0.0069
1052.00,0.0067
1051.00,0.0066
1050.00,0.0065
1049.00,0.0065
1048.00,0.0064
1047.00,0.0064
1046.00,0.0063
1045.00,0.0063
1044.00,0.0063
1043.00,0.0063
1042.00,0.0063
1041.00,0.0064
1040.00,0.0065
1039.00,0.0067
1038.00,0.0070
1037.00,0.0076
1036.00,0.0083
1035.00,0.0094
1034.00,0.0107
1033.00,0.0122
1032.00,0.0138
1031.00,0.0153
1030.00,0.0165
1029.00,0.0173
1028.00,0.0177
1027.00,0.0175
1026.00,0.0168
1025.00,0.0158
1024.00,0.0147
1023.00,0.0136
1022.00,0.0127
1021.00,0.0120
1020.00,0.0113
1019.00,0.0108
1018.00,0.0103
1017.00,0.0098
1016.00,0.0095
1015.00,0.0091
1014.00,0.0088
1013.00,0.0085
1012.00,0.0083
1011.00,0.0081
1010.00,0.0080
1009.00,0.0079
1008.00,0.0079
1007.00,0.0079
1006.00,0.0081
1005.00,0.0082
1004.00,0.0084
1003.00,0.0084
1002.00,0.0083
1001.00,0.0080
1000.00,0.0076
999.00,0.0072
998.00,0.0069
997.00,0.0067
996.00,0.0065
995.00,0.0064
994.00,0.0063
993.00,0.0063
992.00,0.0063
991.00,0.0064
990.00,0.0064
989.00,0.0065
988.00,0.0066
987.00,0.0067
986.00,0.0068
985.00,0.0070
984.00,0.0072
983.00,0.0073
982.00,0.0075
981.00,0.0075
980.00,0.0075
979.00,0.0074
978.00,0.0073
977.00,0.0072
976.00,0.0070
975.00,0.0068
974.00,0.0066
973.00,0.0065
972.00,0.0065
971.00,0.0066
970.00,0.0067
969.00,0.0068
968.00,0.0070
967.00,0.0072
966.00,0.0074
965.00,0.0075
964.00,0.0075
963.00,0.0075
962.00,0.0073
961.00,0.0070
960.00,0.0067
959.00,0.0064
958.00,0.0061
957.00,0.0059
956.00,0.0057
955.00,0.0055
954.00,0.0054
953.00,0.0054
952.00,0.0054
951.00,0.0054
950.00,0.0055
949.00,0.0056
948.00,0.0057
947.00,0.0059
946.00,0.0060
945.00,0.0060
944.00,0.0061
943.00,0.0061
942.00,0.0061
941.00,0.0061
940.00,0.0060
939.00,0.0059
938.00,0.0058
937.00,0.0057
936.00,0.0055
935.00,0.0054
934.00,0.0052
933.00,0.0051
932.00,0.0050
931.00,0.0049
930.00,0.0049
929.00,0.0049
928.00,0.0049
927.00,0.0050
926.00,0.0051
925.00,0.0051
924.00,0.0052
923.00,0.0053
922.00,0.0054
921.00,0.0056
920.00,0.0057
919.00,0.0059
918.00,0.0062
917.00,0.0065
916.00,0.0069
915.00,0.0074
914.00,0.0081
913.00,0.0088
912.00,0.0096
911.00,0.0103
910.00,0.0111
909.00,0.0117
908.00,0.0123
907.00,0.0126
906.00,0.0127
905.00,0.0125
904.00,0.0121
903.00,0.0115
902.00,0.0107
901.00,0.0098
900.00,0.0090
899.00,0.0082
898.00,0.0075
897.00,0.0069
896.00,0.0064
895.00,0.0060
894.00,0.0057
893.00,0.0055
892.00,0.0053
891.00,0.0051
890.00,0.0050
889.00,0.0049
888.00,0.0047
887.00,0.0046
886.00,0.0045
885.00,0.0045
884.00,0.0045
883.00,0.0045
882.00,0.0044
881.00,0.0044
880.00,0.0043
879.00,0.0042
878.00,0.0041
877.00,0.0040
876.00,0.0040
875.00,0.0040
874.00,0.0040
873.00,0.0040
872.00,0.0039
871.00,0.0039
870.00,0.0039
869.00,0.0039
868.00,0.0039
867.00,0.0039
866.00,0.0039
865.00,0.0039
864.00,0.0039
863.00,0.0039
862.00,0.0039
861.00,0.0039
860.00,0.0039
859.00,0.0039
858.00,0.0039
857.00,0.0040
856.00,0.0040
855.00,0.0040
854.00,0.0041
853.00,0.0043
852.00,0.0045
851.00,0.0047
850.00,0.0050
849.00,0.0053
848.00,0.0057
847.00,0.0061
846.00,0.0064
845.00,0.0067
844.00,0.0069
843.00,0.0071
842.00,0.0072
841.00,0.0072
840.00,0.0071
839.00,0.0068
838.00,0.0065
837.00,0.0062
836.00,0.0058
835.00,0.0054
834.00,0.0050
833.00,0.0046
832.00,0.0043
831.00,0.0041
830.00,0.0040
829.00,0.0039
828.00,0.0038
827.00,0.0037
826.00,0.0036
825.00,0.0035
824.00,0.0035
823.00,0.0035
822.00,0.0036
821.00,0.0037
820.00,0.0037
819.00,0.0037
818.00,0.0037
817.00,0.0037
816.00,0.0037
815.00,0.0037
814.00,0.0038
813.00,0.0038
812.00,0.0039
811.00,0.0039
810.00,0.0039
809.00,0.0039
808.00,0.0039
807.00,0.0039
806.00,0.0039
805.00,0.0040
804.00,0.0040
803.00,0.0041
802.00,0.0042
801.00,0.0043
800.00,0.0044
799.00,0.0046
798.00,0.0048
797.00,0.0050
796.00,0.0052
795.00,0.0054
794.00,0.0056
793.00,0.0058
792.00,0.0060
791.00,0.0063
790.00,0.0066
789.00,0.0069
788.00,0.0073
787.00,0.0077
786.00,0.0082
785.00,0.0087
784.00,0.0091
783.00,0.0097
782.00,0.0103
781.00,0.0109
780.00,0.0116
779.00,0.0125
778.00,0.0135
777.00,0.0146
776.00,0.0159
775.00,0.0174
774.00,0.0189
773.00,0.0206
772.00,0.0224
771.00,0.0243
770.00,0.0263
769.00,0.0284
768.00,0.0305
767.00,0.0325
766.00,0.0345
765.00,0.0366
764.00,0.0386
763.00,0.0407
762.00,0.0428
761.00,0.0449
760.00,0.0469
759.00,0.0488
758.00,0.0505
757.00,0.0517
756.00,0.0526
755.00,0.0530
754.00,0.0530
753.00,0.0529
752.00,0.0526
751.00,0.0525
750.00,0.0524
749.00,0.0524
748.00,0.0521
747.00,0.0514
746.00,0.0500
745.00,0.0478
744.00,0.0450
743.00,0.0417
742.00,0.0381
741.00,0.0347
740.00,0.0314
739.00,0.0284
738.00,0.0257
737.00,0.0232
736.00,0.0209
735.00,0.0186
734.00,0.0165
733.00,0.0144
732.00,0.0126
731.00,0.0112
730.00,0.0101
729.00,0.0092
728.00,0.0086
727.00,0.0081
726.00,0.0077
725.00,0.0075
724.00,0.0073
723.00,0.0072
722.00,0.0071
721.00,0.0071
720.00,0.0071
719.00,0.0072
718.00,0.0073
717.00,0.0075
716.00,0.0079
715.00,0.0085
714.00,0.0094
713.00,0.0105
712.00,0.0122
711.00,0.0145
710.00,0.0176
709.00,0.0218
708.00,0.0271
707.00,0.0338
706.00,0.0419
705.00,0.0514
704.00,0.0623
703.00,0.0744
702.00,0.0875
701.00,0.1014
700.00,0.1156
699.00,0.1295
698.00,0.1427
697.00,0.1542
696.00,0.1625
695.00,0.1658
694.00,0.1628
693.00,0.1533
692.00,0.1389
691.00,0.1223
690.00,0.1061
689.00,0.0918
688.00,0.0799
687.00,0.0704
686.00,0.0629
685.00,0.0567
684.00,0.0516
683.00,0.0473
682.00,0.0436
681.00,0.0405
680.00,0.0378
679.00,0.0354
678.00,0.0335
677.00,0.0318
676.00,0.0304
675.00,0.0291
674.00,0.0280
673.00,0.0271
672.00,0.0262
671.00,0.0255
670.00,0.0247
669.00,0.0238
668.00,0.0228
667.00,0.0218
666.00,0.0210
665.00,0.0204
664.00,0.0197
663.00,0.0190
662.00,0.0183
661.00,0.0176
660.00,0.0169
659.00,0.0162
658.00,0.0156
657.00,0.0151
656.00,0.0145
655.00,0.0140
654.00,0.0135
653.00,0.0131
652.00,0.0127
651.00,0.0123
650.00,0.0120
649.00,0.0117
648.00,0.0114
647.00,0.0111
646.00,0.0109
645.00,0.0107
644.00,0.0105
643.00,0.0103
642.00,0.0102
641.00,0.0102
640.00,0.0101
639.00,0.0102
638.00,0.0104
637.00,0.0107
636.00,0.0110
635.00,0.0113
634.00,0.0115
633.00,0.0117
632.00,0.0119
631.00,0.0120
630.00,0.0121
629.00,0.0123
628.00,0.0124
627.00,0.0125
626.00,0.0126
625.00,0.0126
624.00,0.0128
623.00,0.0130
622.00,0.0133
621.00,0.0136
620.00,0.0136
619.00,0.0135
618.00,0.0132
617.00,0.0128
616.00,0.0125
615.00,0.0122
614.00,0.0120
613.00,0.0118
612.00,0.0116
611.00,0.0114
610.00,0.0113
609.00,0.0111
608.00,0.0110
607.00,0.0109
606.00,0.0108
605.00,0.0108
604.00,0.0109
603.00,0.0110
602.00,0.0111
601.00,0.0111
600.00,0.0111
599.00,0.0112
598.00,0.0113
597.00,0.0115
596.00,0.0118
595.00,0.0120
594.00,0.0121
593.00,0.0122
592.00,0.0123
591.00,0.0124
590.00,0.0126
589.00,0.0128
588.00,0.0130
587.00,0.0131
586.00,0.0133
585.00,0.0135
584.00,0.0137
583.00,0.0140
582.00,0.0143
581.00,0.0147
580.00,0.0151
579.00,0.0156
578.00,0.0163
577.00,0.0170
576.00,0.0177
575.00,0.0185
574.00,0.0192
573.00,0.0200
572.00,0.0208
571.00,0.0216
570.00,0.0223
569.00,0.0231
568.00,0.0238
567.00,0.0245
566.00,0.0252
565.00,0.0259
564.00,0.0266
563.00,0.0272
562.00,0.0280
561.00,0.0288
560.00,0.0296
559.00,0.0305
558.00,0.0312
557.00,0.0320
556.00,0.0328
555.00,0.0336
554.00,0.0344
553.00,0.0353
552.00,0.0363
551.00,0.0374
550.00,0.0387
549.00,0.0400
548.00,0.0413
547.00,0.0427
546.00,0.0443
545.00,0.0462
544.00,0.0483
543.00,0.0504
542.00,0.0524
541.00,0.0542
540.00,0.0558
539.00,0.0568
538.00,0.0571
537.00,0.0569
536.00,0.0561
535.00,0.0547
534.00,0.0526
533.00,0.0501
532.00,0.0475
531.00,0.0448
530.00,0.0420
529.00,0.0394
528.00,0.0369
527.00,0.0346
526.00,0.0326
525.00,0.0306
524.00,0.0289
523.00,0.0272
522.00,0.0257
521.00,0.0245
520.00,0.0235
519.00,0.0227
518.00,0.0220
517.00,0.0214
516.00,0.0208
515.00,0.0202
514.00,0.0196
513.00,0.0190
512.00,0.0185
511.00,0.0179
510.00,0.0173
509.00,0.0167
508.00,0.0164
507.00,0.0160
506.00,0.0157
505.00,0.0155
504.00,0.0152
503.00,0.0148
502.00,0.0144
501.00,0.0139
500.00,0.0135
499.00,0.0133
498.00,0.0132
497.00,0.0130
496.00,0.0128
495.00,0.0125
494.00,0.0123
493.00,0.0122
492.00,0.0121
491.00,0.0119
490.00,0.0117
489.00,0.0115
488.00,0.0114
487.00,0.0113
486.00,0.0111
485.00,0.0109
484.00,0.0107
483.00,0.0106
482.00,0.0106
481.00,0.0105
480.00,0.0104
479.00,0.0104
478.00,0.0104
477.00,0.0106
476.00,0.0107
475.00,0.0107
474.00,0.0107
473.00,0.0105
472.00,0.0104
471.00,0.0102
470.00,0.0101
469.00,0.0101
468.00,0.0101
467.00,0.0101
466.00,0.0101
465.00,0.0101
464.00,0.0101
463.00,0.0102
462.00,0.0101
461.00,0.0097
460.00,0.0093
459.00,0.0090
458.00,0.0091
457.00,0.0094
456.00,0.0095
455.00,0.0095
454.00,0.0093
453.00,0.0093
452.00,0.0092
451.00,0.0091
450.00,0.0091
449.00,0.0092
448.00,0.0093
447.00,0.0092
446.00,0.0090
445.00,0.0088
444.00,0.0087
443.00,0.0087
442.00,0.0087
441.00,0.0088
440.00,0.0088
439.00,0.0089
438.00,0.0090
437.00,0.0091
436.00,0.0091
435.00,0.0090
434.00,0.0089
433.00,0.0087
432.00,0.0085
431.00,0.0082
430.00,0.0079
429.00,0.0079
428.00,0.0079
427.00,0.0078
426.00,0.0076
425.00,0.0075
424.00,0.0076
423.00,0.0078
422.00,0.0080
421.00,0.0078
420.00,0.0075
419.00,0.0072
418.00,0.0071
417.00,0.0071
416.00,0.0071
415.00,0.0070
414.00,0.0071
413.00,0.0072
412.00,0.0073
411.00,0.0074
410.00,0.0077
409.00,0.0084
408.00,0.0090
407.00,0.0093
406.00,0.0093
405.00,0.0090
404.00,0.0085
403.00,0.0078
402.00,0.0069
401.00,0.0062
400.00,0.0059
