Created as New Dataset,Sample 850 By YargerLab Date Saturday, April 18 2026
cm-1,A
4000.00,0.0041
3999.00,0.0041
3998.00,0.0041
3997.00,0.0041
3996.00,0.0041
3995.00,0.0041
3994.00,0.0041
3993.00,0.0041
3992.00,0.0041
3991.00,0.0041
3990.00,0.0041
3989.00,0.0041
3988.00,0.0041
3987.00,0.0041
3986.00,0.0041
3985.00,0.0041
3984.00,0.0041
3983.00,0.0041
3982.00,0.0041
3981.00,0.0041
3980.00,0.0041
3979.00,0.0041
3978.00,0.0041
3977.00,0.0041
3976.00,0.0041
3975.00,0.0041
3974.00,0.0041
3973.00,0.0041
3972.00,0.0041
3971.00,0.0041
3970.00,0.0041
3969.00,0.0041
3968.00,0.0041
3967.00,0.0041
3966.00,0.0041
3965.00,0.0041
3964.00,0.0040
3963.00,0.0040
3962.00,0.0040
3961.00,0.0041
3960.00,0.0041
3959.00,0.0041
3958.00,0.0041
3957.00,0.0041
3956.00,0.0041
3955.00,0.0041
3954.00,0.0041
3953.00,0.0040
3952.00,0.0040
3951.00,0.0041
3950.00,0.0041
3949.00,0.0041
3948.00,0.0040
3947.00,0.0040
3946.00,0.0040
3945.00,0.0040
3944.00,0.0040
3943.00,0.0040
3942.00,0.0040
3941.00,0.0040
3940.00,0.0040
3939.00,0.0040
3938.00,0.0040
3937.00,0.0040
3936.00,0.0040
3935.00,0.0040
3934.00,0.0040
3933.00,0.0040
3932.00,0.0041
3931.00,0.0041
3930.00,0.0041
3929.00,0.0041
3928.00,0.0041
3927.00,0.0041
3926.00,0.0040
3925.00,0.0040
3924.00,0.0040
3923.00,0.0041
3922.00,0.0041
3921.00,0.0040
3920.00,0.0040
3919.00,0.0040
3918.00,0.0040
3917.00,0.0040
3916.00,0.0040
3915.00,0.0040
3914.00,0.0040
3913.00,0.0040
3912.00,0.0040
3911.00,0.0040
3910.00,0.0040
3909.00,0.0040
3908.00,0.0040
3907.00,0.0040
3906.00,0.0040
3905.00,0.0040
3904.00,0.0040
3903.00,0.0040
3902.00,0.0040
3901.00,0.0039
3900.00,0.0039
3899.00,0.0039
3898.00,0.0039
3897.00,0.0040
3896.00,0.0040
3895.00,0.0040
3894.00,0.0040
3893.00,0.0039
3892.00,0.0039
3891.00,0.0039
3890.00,0.0039
3889.00,0.0039
3888.00,0.0039
3887.00,0.0039
3886.00,0.0039
3885.00,0.0039
3884.00,0.0039
3883.00,0.0039
3882.00,0.0039
3881.00,0.0039
3880.00,0.0039
3879.00,0.0039
3878.00,0.0039
3877.00,0.0039
3876.00,0.0039
3875.00,0.0039
3874.00,0.0039
3873.00,0.0039
3872.00,0.0040
3871.00,0.0040
3870.00,0.0040
3869.00,0.0040
3868.00,0.0040
3867.00,0.0040
3866.00,0.0040
3865.00,0.0040
3864.00,0.0040
3863.00,0.0039
3862.00,0.0039
3861.00,0.0039
3860.00,0.0039
3859.00,0.0039
3858.00,0.0039
3857.00,0.0040
3856.00,0.0040
3855.00,0.0039
3854.00,0.0039
3853.00,0.0039
3852.00,0.0039
3851.00,0.0039
3850.00,0.0039
3849.00,0.0039
3848.00,0.0039
3847.00,0.0039
3846.00,0.0039
3845.00,0.0039
3844.00,0.0038
3843.00,0.0038
3842.00,0.0038
3841.00,0.0038
3840.00,0.0038
3839.00,0.0038
3838.00,0.0038
3837.00,0.0038
3836.00,0.0038
3835.00,0.0038
3834.00,0.0038
3833.00,0.0038
3832.00,0.0038
3831.00,0.0038
3830.00,0.0038
3829.00,0.0038
3828.00,0.0038
3827.00,0.0038
3826.00,0.0038
3825.00,0.0038
3824.00,0.0039
3823.00,0.0039
3822.00,0.0039
3821.00,0.0039
3820.00,0.0039
3819.00,0.0039
3818.00,0.0039
3817.00,0.0038
3816.00,0.0038
3815.00,0.0038
3814.00,0.0038
3813.00,0.0038
3812.00,0.0038
3811.00,0.0038
3810.00,0.0038
3809.00,0.0038
3808.00,0.0037
3807.00,0.0038
3806.00,0.0038
3805.00,0.0038
3804.00,0.0037
3803.00,0.0037
3802.00,0.0037
3801.00,0.0037
3800.00,0.0037
3799.00,0.0037
3798.00,0.0037
3797.00,0.0037
3796.00,0.0037
3795.00,0.0037
3794.00,0.0037
3793.00,0.0037
3792.00,0.0037
3791.00,0.0037
3790.00,0.0037
3789.00,0.0037
3788.00,0.0037
3787.00,0.0037
3786.00,0.0038
3785.00,0.0038
3784.00,0.0038
3783.00,0.0038
3782.00,0.0037
3781.00,0.0037
3780.00,0.0037
3779.00,0.0037
3778.00,0.0038
3777.00,0.0038
3776.00,0.0038
3775.00,0.0037
3774.00,0.0037
3773.00,0.0037
3772.00,0.0037
3771.00,0.0038
3770.00,0.0038
3769.00,0.0038
3768.00,0.0038
3767.00,0.0038
3766.00,0.0038
3765.00,0.0038
3764.00,0.0037
3763.00,0.0037
3762.00,0.0037
3761.00,0.0037
3760.00,0.0037
3759.00,0.0037
3758.00,0.0037
3757.00,0.0038
3756.00,0.0038
3755.00,0.0038
3754.00,0.0038
3753.00,0.0038
3752.00,0.0038
3751.00,0.0037
3750.00,0.0037
3749.00,0.0037
3748.00,0.0037
3747.00,0.0036
3746.00,0.0036
3745.00,0.0036
3744.00,0.0037
3743.00,0.0037
3742.00,0.0036
3741.00,0.0036
3740.00,0.0036
3739.00,0.0036
3738.00,0.0036
3737.00,0.0036
3736.00,0.0036
3735.00,0.0035
3734.00,0.0035
3733.00,0.0035
3732.00,0.0036
3731.00,0.0036
3730.00,0.0036
3729.00,0.0036
3728.00,0.0036
3727.00,0.0036
3726.00,0.0035
3725.00,0.0035
3724.00,0.0035
3723.00,0.0035
3722.00,0.0035
3721.00,0.0035
3720.00,0.0035
3719.00,0.0035
3718.00,0.0035
3717.00,0.0035
3716.00,0.0035
3715.00,0.0035
3714.00,0.0035
3713.00,0.0035
3712.00,0.0035
3711.00,0.0035
3710.00,0.0035
3709.00,0.0034
3708.00,0.0034
3707.00,0.0034
3706.00,0.0034
3705.00,0.0034
3704.00,0.0034
3703.00,0.0034
3702.00,0.0034
3701.00,0.0034
3700.00,0.0034
3699.00,0.0034
3698.00,0.0034
3697.00,0.0034
3696.00,0.0034
3695.00,0.0034
3694.00,0.0034
3693.00,0.0034
3692.00,0.0034
3691.00,0.0034
3690.00,0.0034
3689.00,0.0034
3688.00,0.0033
3687.00,0.0033
3686.00,0.0033
3685.00,0.0033
3684.00,0.0033
3683.00,0.0033
3682.00,0.0033
3681.00,0.0033
3680.00,0.0033
3679.00,0.0033
3678.00,0.0032
3677.00,0.0032
3676.00,0.0032
3675.00,0.0031
3674.00,0.0031
3673.00,0.0031
3672.00,0.0031
3671.00,0.0031
3670.00,0.0031
3669.00,0.0031
3668.00,0.0031
3667.00,0.0031
3666.00,0.0031
3665.00,0.0031
3664.00,0.0031
3663.00,0.0031
3662.00,0.0031
3661.00,0.0031
3660.00,0.0031
3659.00,0.0031
3658.00,0.0031
3657.00,0.0031
3656.00,0.0031
3655.00,0.0031
3654.00,0.0031
3653.00,0.0031
3652.00,0.0031
3651.00,0.0031
3650.00,0.0031
3649.00,0.0031
3648.00,0.0031
3647.00,0.0031
3646.00,0.0031
3645.00,0.0031
3644.00,0.0031
3643.00,0.0031
3642.00,0.0031
3641.00,0.0031
3640.00,0.0031
3639.00,0.0031
3638.00,0.0031
3637.00,0.0031
3636.00,0.0031
3635.00,0.0032
3634.00,0.0033
3633.00,0.0033
3632.00,0.0033
3631.00,0.0033
3630.00,0.0033
3629.00,0.0034
3628.00,0.0034
3627.00,0.0034
3626.00,0.0034
3625.00,0.0033
3624.00,0.0033
3623.00,0.0033
3622.00,0.0034
3621.00,0.0034
3620.00,0.0034
3619.00,0.0035
3618.00,0.0035
3617.00,0.0035
3616.00,0.0035
3615.00,0.0035
3614.00,0.0035
3613.00,0.0035
3612.00,0.0035
3611.00,0.0035
3610.00,0.0036
3609.00,0.0036
3608.00,0.0036
3607.00,0.0036
3606.00,0.0036
3605.00,0.0036
3604.00,0.0037
3603.00,0.0037
3602.00,0.0037
3601.00,0.0037
3600.00,0.0037
3599.00,0.0037
3598.00,0.0037
3597.00,0.0038
3596.00,0.0038
3595.00,0.0038
3594.00,0.0039
3593.00,0.0039
3592.00,0.0039
3591.00,0.0040
3590.00,0.0040
3589.00,0.0040
3588.00,0.0040
3587.00,0.0041
3586.00,0.0041
3585.00,0.0042
3584.00,0.0043
3583.00,0.0044
3582.00,0.0045
3581.00,0.0047
3580.00,0.0048
3579.00,0.0050
3578.00,0.0052
3577.00,0.0054
3576.00,0.0057
3575.00,0.0060
3574.00,0.0063
3573.00,0.0067
3572.00,0.0072
3571.00,0.0078
3570.00,0.0084
3569.00,0.0091
3568.00,0.0099
3567.00,0.0108
3566.00,0.0117
3565.00,0.0125
3564.00,0.0131
3563.00,0.0137
3562.00,0.0141
3561.00,0.0144
3560.00,0.0144
3559.00,0.0143
3558.00,0.0141
3557.00,0.0137
3556.00,0.0133
3555.00,0.0128
3554.00,0.0123
3553.00,0.0118
3552.00,0.0113
3551.00,0.0108
3550.00,0.0103
3549.00,0.0099
3548.00,0.0095
3547.00,0.0091
3546.00,0.0088
3545.00,0.0085
3544.00,0.0082
3543.00,0.0080
3542.00,0.0079
3541.00,0.0077
3540.00,0.0076
3539.00,0.0076
3538.00,0.0075
3537.00,0.0075
3536.00,0.0074
3535.00,0.0074
3534.00,0.0074
3533.00,0.0073
3532.00,0.0073
3531.00,0.0074
3530.00,0.0074
3529.00,0.0074
3528.00,0.0074
3527.00,0.0075
3526.00,0.0075
3525.00,0.0076
3524.00,0.0076
3523.00,0.0077
3522.00,0.0078
3521.00,0.0078
3520.00,0.0079
3519.00,0.0080
3518.00,0.0081
3517.00,0.0081
3516.00,0.0082
3515.00,0.0083
3514.00,0.0084
3513.00,0.0085
3512.00,0.0086
3511.00,0.0087
3510.00,0.0088
3509.00,0.0089
3508.00,0.0090
3507.00,0.0091
3506.00,0.0092
3505.00,0.0093
3504.00,0.0095
3503.00,0.0096
3502.00,0.0097
3501.00,0.0098
3500.00,0.0100
3499.00,0.0101
3498.00,0.0102
3497.00,0.0103
3496.00,0.0104
3495.00,0.0105
3494.00,0.0107
3493.00,0.0108
3492.00,0.0109
3491.00,0.0111
3490.00,0.0112
3489.00,0.0113
3488.00,0.0115
3487.00,0.0116
3486.00,0.0117
3485.00,0.0119
3484.00,0.0120
3483.00,0.0122
3482.00,0.0123
3481.00,0.0124
3480.00,0.0126
3479.00,0.0127
3478.00,0.0128
3477.00,0.0129
3476.00,0.0130
3475.00,0.0132
3474.00,0.0133
3473.00,0.0134
3472.00,0.0136
3471.00,0.0137
3470.00,0.0138
3469.00,0.0139
3468.00,0.0140
3467.00,0.0142
3466.00,0.0143
3465.00,0.0144
3464.00,0.0145
3463.00,0.0146
3462.00,0.0147
3461.00,0.0148
3460.00,0.0150
3459.00,0.0151
3458.00,0.0152
3457.00,0.0154
3456.00,0.0155
3455.00,0.0156
3454.00,0.0158
3453.00,0.0159
3452.00,0.0161
3451.00,0.0163
3450.00,0.0164
3449.00,0.0166
3448.00,0.0168
3447.00,0.0170
3446.00,0.0172
3445.00,0.0175
3444.00,0.0177
3443.00,0.0179
3442.00,0.0182
3441.00,0.0184
3440.00,0.0187
3439.00,0.0189
3438.00,0.0192
3437.00,0.0195
3436.00,0.0198
3435.00,0.0202
3434.00,0.0205
3433.00,0.0208
3432.00,0.0212
3431.00,0.0215
3430.00,0.0219
3429.00,0.0222
3428.00,0.0226
3427.00,0.0230
3426.00,0.0233
3425.00,0.0236
3424.00,0.0240
3423.00,0.0243
3422.00,0.0247
3421.00,0.0250
3420.00,0.0252
3419.00,0.0255
3418.00,0.0257
3417.00,0.0260
3416.00,0.0262
3415.00,0.0265
3414.00,0.0267
3413.00,0.0269
3412.00,0.0271
3411.00,0.0273
3410.00,0.0275
3409.00,0.0276
3408.00,0.0278
3407.00,0.0279
3406.00,0.0281
3405.00,0.0283
3404.00,0.0286
3403.00,0.0288
3402.00,0.0291
3401.00,0.0294
3400.00,0.0297
3399.00,0.0300
3398.00,0.0303
3397.00,0.0307
3396.00,0.0311
3395.00,0.0316
3394.00,0.0320
3393.00,0.0325
3392.00,0.0329
3391.00,0.0334
3390.00,0.0338
3389.00,0.0343
3388.00,0.0346
3387.00,0.0349
3386.00,0.0352
3385.00,0.0354
3384.00,0.0355
3383.00,0.0355
3382.00,0.0355
3381.00,0.0355
3380.00,0.0354
3379.00,0.0352
3378.00,0.0351
3377.00,0.0349
3376.00,0.0346
3375.00,0.0344
3374.00,0.0342
3373.00,0.0339
3372.00,0.0337
3371.00,0.0335
3370.00,0.0333
3369.00,0.0331
3368.00,0.0330
3367.00,0.0328
3366.00,0.0327
3365.00,0.0326
3364.00,0.0325
3363.00,0.0325
3362.00,0.0325
3361.00,0.0325
3360.00,0.0325
3359.00,0.0326
3358.00,0.0327
3357.00,0.0328
3356.00,0.0329
3355.00,0.0330
3354.00,0.0332
3353.00,0.0333
3352.00,0.0335
3351.00,0.0337
3350.00,0.0339
3349.00,0.0341
3348.00,0.0343
3347.00,0.0346
3346.00,0.0348
3345.00,0.0351
3344.00,0.0353
3343.00,0.0356
3342.00,0.0358
3341.00,0.0361
3340.00,0.0363
3339.00,0.0365
3338.00,0.0368
3337.00,0.0369
3336.00,0.0371
3335.00,0.0372
3334.00,0.0374
3333.00,0.0375
3332.00,0.0376
3331.00,0.0377
3330.00,0.0378
3329.00,0.0379
3328.00,0.0379
3327.00,0.0380
3326.00,0.0380
3325.00,0.0380
3324.00,0.0379
3323.00,0.0379
3322.00,0.0379
3321.00,0.0378
3320.00,0.0378
3319.00,0.0378
3318.00,0.0378
3317.00,0.0377
3316.00,0.0377
3315.00,0.0376
3314.00,0.0376
3313.00,0.0375
3312.00,0.0375
3311.00,0.0374
3310.00,0.0373
3309.00,0.0373
3308.00,0.0372
3307.00,0.0372
3306.00,0.0371
3305.00,0.0370
3304.00,0.0369
3303.00,0.0368
3302.00,0.0367
3301.00,0.0366
3300.00,0.0365
3299.00,0.0365
3298.00,0.0364
3297.00,0.0363
3296.00,0.0362
3295.00,0.0361
3294.00,0.0360
3293.00,0.0359
3292.00,0.0358
3291.00,0.0357
3290.00,0.0356
3289.00,0.0354
3288.00,0.0353
3287.00,0.0352
3286.00,0.0351
3285.00,0.0350
3284.00,0.0349
3283.00,0.0348
3282.00,0.0347
3281.00,0.0345
3280.00,0.0344
3279.00,0.0343
3278.00,0.0342
3277.00,0.0342
3276.00,0.0341
3275.00,0.0340
3274.00,0.0339
3273.00,0.0338
3272.00,0.0338
3271.00,0.0337
3270.00,0.0336
3269.00,0.0335
3268.00,0.0334
3267.00,0.0333
3266.00,0.0332
3265.00,0.0331
3264.00,0.0331
3263.00,0.0330
3262.00,0.0329
3261.00,0.0329
3260.00,0.0328
3259.00,0.0327
3258.00,0.0327
3257.00,0.0326
3256.00,0.0326
3255.00,0.0325
3254.00,0.0325
3253.00,0.0324
3252.00,0.0323
3251.00,0.0323
3250.00,0.0322
3249.00,0.0322
3248.00,0.0321
3247.00,0.0321
3246.00,0.0321
3245.00,0.0320
3244.00,0.0320
3243.00,0.0319
3242.00,0.0319
3241.00,0.0318
3240.00,0.0318
3239.00,0.0317
3238.00,0.0316
3237.00,0.0316
3236.00,0.0315
3235.00,0.0314
3234.00,0.0314
3233.00,0.0313
3232.00,0.0312
3231.00,0.0310
3230.00,0.0309
3229.00,0.0307
3228.00,0.0306
3227.00,0.0304
3226.00,0.0303
3225.00,0.0301
3224.00,0.0300
3223.00,0.0298
3222.00,0.0296
3221.00,0.0295
3220.00,0.0293
3219.00,0.0291
3218.00,0.0289
3217.00,0.0287
3216.00,0.0285
3215.00,0.0283
3214.00,0.0280
3213.00,0.0278
3212.00,0.0276
3211.00,0.0274
3210.00,0.0272
3209.00,0.0270
3208.00,0.0267
3207.00,0.0265
3206.00,0.0263
3205.00,0.0260
3204.00,0.0258
3203.00,0.0256
3202.00,0.0253
3201.00,0.0251
3200.00,0.0249
3199.00,0.0247
3198.00,0.0245
3197.00,0.0243
3196.00,0.0241
3195.00,0.0239
3194.00,0.0237
3193.00,0.0235
3192.00,0.0233
3191.00,0.0231
3190.00,0.0229
3189.00,0.0227
3188.00,0.0225
3187.00,0.0223
3186.00,0.0221
3185.00,0.0220
3184.00,0.0218
3183.00,0.0216
3182.00,0.0214
3181.00,0.0212
3180.00,0.0211
3179.00,0.0209
3178.00,0.0207
3177.00,0.0205
3176.00,0.0204
3175.00,0.0202
3174.00,0.0200
3173.00,0.0199
3172.00,0.0197
3171.00,0.0196
3170.00,0.0195
3169.00,0.0193
3168.00,0.0192
3167.00,0.0191
3166.00,0.0189
3165.00,0.0188
3164.00,0.0186
3163.00,0.0185
3162.00,0.0183
3161.00,0.0181
3160.00,0.0180
3159.00,0.0179
3158.00,0.0177
3157.00,0.0176
3156.00,0.0175
3155.00,0.0174
3154.00,0.0173
3153.00,0.0172
3152.00,0.0171
3151.00,0.0170
3150.00,0.0168
3149.00,0.0167
3148.00,0.0165
3147.00,0.0164
3146.00,0.0163
3145.00,0.0162
3144.00,0.0161
3143.00,0.0160
3142.00,0.0159
3141.00,0.0158
3140.00,0.0157
3139.00,0.0156
3138.00,0.0154
3137.00,0.0153
3136.00,0.0152
3135.00,0.0151
3134.00,0.0149
3133.00,0.0148
3132.00,0.0148
3131.00,0.0147
3130.00,0.0146
3129.00,0.0145
3128.00,0.0144
3127.00,0.0143
3126.00,0.0142
3125.00,0.0141
3124.00,0.0140
3123.00,0.0140
3122.00,0.0139
3121.00,0.0138
3120.00,0.0137
3119.00,0.0137
3118.00,0.0136
3117.00,0.0135
3116.00,0.0134
3115.00,0.0133
3114.00,0.0133
3113.00,0.0132
3112.00,0.0131
3111.00,0.0130
3110.00,0.0129
3109.00,0.0128
3108.00,0.0127
3107.00,0.0127
3106.00,0.0126
3105.00,0.0125
3104.00,0.0124
3103.00,0.0124
3102.00,0.0123
3101.00,0.0122
3100.00,0.0122
3099.00,0.0121
3098.00,0.0121
3097.00,0.0120
3096.00,0.0120
3095.00,0.0119
3094.00,0.0118
3093.00,0.0118
3092.00,0.0117
3091.00,0.0116
3090.00,0.0115
3089.00,0.0114
3088.00,0.0114
3087.00,0.0113
3086.00,0.0113
3085.00,0.0113
3084.00,0.0112
3083.00,0.0112
3082.00,0.0111
3081.00,0.0110
3080.00,0.0110
3079.00,0.0109
3078.00,0.0108
3077.00,0.0108
3076.00,0.0107
3075.00,0.0107
3074.00,0.0106
3073.00,0.0106
3072.00,0.0105
3071.00,0.0105
3070.00,0.0104
3069.00,0.0104
3068.00,0.0103
3067.00,0.0103
3066.00,0.0102
3065.00,0.0102
3064.00,0.0101
3063.00,0.0101
3062.00,0.0100
3061.00,0.0100
3060.00,0.0100
3059.00,0.0099
3058.00,0.0099
3057.00,0.0099
3056.00,0.0098
3055.00,0.0098
3054.00,0.0097
3053.00,0.0097
3052.00,0.0096
3051.00,0.0096
3050.00,0.0096
3049.00,0.0095
3048.00,0.0095
3047.00,0.0095
3046.00,0.0094
3045.00,0.0094
3044.00,0.0093
3043.00,0.0093
3042.00,0.0093
3041.00,0.0093
3040.00,0.0092
3039.00,0.0092
3038.00,0.0091
3037.00,0.0091
3036.00,0.0090
3035.00,0.0090
3034.00,0.0089
3033.00,0.0089
3032.00,0.0089
3031.00,0.0089
3030.00,0.0089
3029.00,0.0089
3028.00,0.0088
3027.00,0.0088
3026.00,0.0088
3025.00,0.0088
3024.00,0.0088
3023.00,0.0088
3022.00,0.0088
3021.00,0.0089
3020.00,0.0089
3019.00,0.0089
3018.00,0.0090
3017.00,0.0091
3016.00,0.0091
3015.00,0.0091
3014.00,0.0091
3013.00,0.0090
3012.00,0.0089
3011.00,0.0087
3010.00,0.0086
3009.00,0.0084
3008.00,0.0082
3007.00,0.0080
3006.00,0.0079
3005.00,0.0078
3004.00,0.0078
3003.00,0.0078
3002.00,0.0078
3001.00,0.0079
3000.00,0.0080
2999.00,0.0082
2998.00,0.0084
2997.00,0.0087
2996.00,0.0089
2995.00,0.0090
2994.00,0.0090
2993.00,0.0088
2992.00,0.0086
2991.00,0.0084
2990.00,0.0082
2989.00,0.0081
2988.00,0.0081
2987.00,0.0081
2986.00,0.0081
2985.00,0.0081
2984.00,0.0079
2983.00,0.0076
2982.00,0.0074
2981.00,0.0072
2980.00,0.0071
2979.00,0.0072
2978.00,0.0073
2977.00,0.0076
2976.00,0.0079
2975.00,0.0084
2974.00,0.0090
2973.00,0.0095
2972.00,0.0099
2971.00,0.0099
2970.00,0.0097
2969.00,0.0094
2968.00,0.0090
2967.00,0.0088
2966.00,0.0086
2965.00,0.0085
2964.00,0.0085
2963.00,0.0086
2962.00,0.0088
2961.00,0.0089
2960.00,0.0091
2959.00,0.0092
2958.00,0.0093
2957.00,0.0094
2956.00,0.0094
2955.00,0.0095
2954.00,0.0096
2953.00,0.0098
2952.00,0.0101
2951.00,0.0105
2950.00,0.0110
2949.00,0.0117
2948.00,0.0125
2947.00,0.0134
2946.00,0.0143
2945.00,0.0151
2944.00,0.0158
2943.00,0.0162
2942.00,0.0164
2941.00,0.0164
2940.00,0.0163
2939.00,0.0161
2938.00,0.0159
2937.00,0.0158
2936.00,0.0157
2935.00,0.0157
2934.00,0.0156
2933.00,0.0155
2932.00,0.0153
2931.00,0.0150
2930.00,0.0145
2929.00,0.0141
2928.00,0.0136
2927.00,0.0132
2926.00,0.0128
2925.00,0.0126
2924.00,0.0124
2923.00,0.0123
2922.00,0.0123
2921.00,0.0124
2920.00,0.0126
2919.00,0.0130
2918.00,0.0134
2917.00,0.0139
2916.00,0.0144
2915.00,0.0148
2914.00,0.0150
2913.00,0.0150
2912.00,0.0148
2911.00,0.0144
2910.00,0.0140
2909.00,0.0136
2908.00,0.0132
2907.00,0.0129
2906.00,0.0127
2905.00,0.0126
2904.00,0.0126
2903.00,0.0126
2902.00,0.0126
2901.00,0.0127
2900.00,0.0129
2899.00,0.0130
2898.00,0.0132
2897.00,0.0133
2896.00,0.0133
2895.00,0.0132
2894.00,0.0132
2893.00,0.0130
2892.00,0.0129
2891.00,0.0127
2890.00,0.0125
2889.00,0.0124
2888.00,0.0122
2887.00,0.0121
2886.00,0.0120
2885.00,0.0119
2884.00,0.0117
2883.00,0.0117
2882.00,0.0116
2881.00,0.0115
2880.00,0.0115
2879.00,0.0115
2878.00,0.0114
2877.00,0.0114
2876.00,0.0113
2875.00,0.0113
2874.00,0.0112
2873.00,0.0111
2872.00,0.0111
2871.00,0.0110
2870.00,0.0110
2869.00,0.0109
2868.00,0.0108
2867.00,0.0108
2866.00,0.0107
2865.00,0.0106
2864.00,0.0106
2863.00,0.0105
2862.00,0.0104
2861.00,0.0104
2860.00,0.0103
2859.00,0.0103
2858.00,0.0103
2857.00,0.0103
2856.00,0.0102
2855.00,0.0102
2854.00,0.0101
2853.00,0.0101
2852.00,0.0101
2851.00,0.0101
2850.00,0.0101
2849.00,0.0101
2848.00,0.0101
2847.00,0.0101
2846.00,0.0101
2845.00,0.0101
2844.00,0.0101
2843.00,0.0100
2842.00,0.0100
2841.00,0.0100
2840.00,0.0100
2839.00,0.0100
2838.00,0.0100
2837.00,0.0100
2836.00,0.0100
2835.00,0.0100
2834.00,0.0100
2833.00,0.0100
2832.00,0.0100
2831.00,0.0100
2830.00,0.0100
2829.00,0.0100
2828.00,0.0100
2827.00,0.0100
2826.00,0.0099
2825.00,0.0099
2824.00,0.0099
2823.00,0.0098
2822.00,0.0098
2821.00,0.0098
2820.00,0.0097
2819.00,0.0097
2818.00,0.0096
2817.00,0.0096
2816.00,0.0096
2815.00,0.0095
2814.00,0.0095
2813.00,0.0095
2812.00,0.0094
2811.00,0.0094
2810.00,0.0093
2809.00,0.0093
2808.00,0.0093
2807.00,0.0093
2806.00,0.0093
2805.00,0.0092
2804.00,0.0092
2803.00,0.0092
2802.00,0.0092
2801.00,0.0091
2800.00,0.0091
2799.00,0.0091
2798.00,0.0090
2797.00,0.0090
2796.00,0.0090
2795.00,0.0090
2794.00,0.0089
2793.00,0.0089
2792.00,0.0089
2791.00,0.0089
2790.00,0.0089
2789.00,0.0088
2788.00,0.0088
2787.00,0.0088
2786.00,0.0088
2785.00,0.0088
2784.00,0.0087
2783.00,0.0087
2782.00,0.0087
2781.00,0.0087
2780.00,0.0087
2779.00,0.0087
2778.00,0.0087
2777.00,0.0087
2776.00,0.0086
2775.00,0.0086
2774.00,0.0086
2773.00,0.0085
2772.00,0.0085
2771.00,0.0085
2770.00,0.0085
2769.00,0.0085
2768.00,0.0085
2767.00,0.0085
2766.00,0.0085
2765.00,0.0084
2764.00,0.0084
2763.00,0.0084
2762.00,0.0084
2761.00,0.0084
2760.00,0.0084
2759.00,0.0084
2758.00,0.0084
2757.00,0.0083
2756.00,0.0083
2755.00,0.0083
2754.00,0.0083
2753.00,0.0082
2752.00,0.0082
2751.00,0.0082
2750.00,0.0082
2749.00,0.0082
2748.00,0.0082
2747.00,0.0082
2746.00,0.0082
2745.00,0.0082
2744.00,0.0082
2743.00,0.0082
2742.00,0.0082
2741.00,0.0082
2740.00,0.0082
2739.00,0.0082
2738.00,0.0082
2737.00,0.0083
2736.00,0.0083
2735.00,0.0084
2734.00,0.0084
2733.00,0.0084
2732.00,0.0085
2731.00,0.0085
2730.00,0.0085
2729.00,0.0086
2728.00,0.0086
2727.00,0.0086
2726.00,0.0087
2725.00,0.0087
2724.00,0.0087
2723.00,0.0087
2722.00,0.0087
2721.00,0.0087
2720.00,0.0087
2719.00,0.0086
2718.00,0.0086
2717.00,0.0086
2716.00,0.0085
2715.00,0.0085
2714.00,0.0085
2713.00,0.0085
2712.00,0.0085
2711.00,0.0085
2710.00,0.0085
2709.00,0.0084
2708.00,0.0084
2707.00,0.0084
2706.00,0.0084
2705.00,0.0083
2704.00,0.0083
2703.00,0.0083
2702.00,0.0083
2701.00,0.0083
2700.00,0.0082
2699.00,0.0082
2698.00,0.0082
2697.00,0.0082
2696.00,0.0082
2695.00,0.0081
2694.00,0.0081
2693.00,0.0081
2692.00,0.0081
2691.00,0.0080
2690.00,0.0080
2689.00,0.0080
2688.00,0.0080
2687.00,0.0080
2686.00,0.0079
2685.00,0.0079
2684.00,0.0079
2683.00,0.0079
2682.00,0.0078
2681.00,0.0078
2680.00,0.0078
2679.00,0.0078
2678.00,0.0078
2677.00,0.0077
2676.00,0.0077
2675.00,0.0077
2674.00,0.0077
2673.00,0.0077
2672.00,0.0077
2671.00,0.0077
2670.00,0.0077
2669.00,0.0077
2668.00,0.0077
2667.00,0.0078
2666.00,0.0078
2665.00,0.0079
2664.00,0.0079
2663.00,0.0079
2662.00,0.0080
2661.00,0.0080
2660.00,0.0080
2659.00,0.0081
2658.00,0.0081
2657.00,0.0081
2656.00,0.0082
2655.00,0.0082
2654.00,0.0082
2653.00,0.0082
2652.00,0.0082
2651.00,0.0082
2650.00,0.0082
2649.00,0.0082
2648.00,0.0082
2647.00,0.0082
2646.00,0.0082
2645.00,0.0082
2644.00,0.0082
2643.00,0.0082
2642.00,0.0082
2641.00,0.0082
2640.00,0.0081
2639.00,0.0081
2638.00,0.0081
2637.00,0.0081
2636.00,0.0081
2635.00,0.0081
2634.00,0.0081
2633.00,0.0080
2632.00,0.0080
2631.00,0.0080
2630.00,0.0080
2629.00,0.0080
2628.00,0.0079
2627.00,0.0079
2626.00,0.0078
2625.00,0.0078
2624.00,0.0078
2623.00,0.0077
2622.00,0.0077
2621.00,0.0077
2620.00,0.0076
2619.00,0.0076
2618.00,0.0075
2617.00,0.0075
2616.00,0.0075
2615.00,0.0075
2614.00,0.0075
2613.00,0.0075
2612.00,0.0075
2611.00,0.0074
2610.00,0.0074
2609.00,0.0073
2608.00,0.0073
2607.00,0.0073
2606.00,0.0073
2605.00,0.0072
2604.00,0.0072
2603.00,0.0072
2602.00,0.0071
2601.00,0.0071
2600.00,0.0071
2599.00,0.0070
2598.00,0.0070
2597.00,0.0070
2596.00,0.0070
2595.00,0.0070
2594.00,0.0070
2593.00,0.0070
2592.00,0.0070
2591.00,0.0070
2590.00,0.0070
2589.00,0.0070
2588.00,0.0070
2587.00,0.0070
2586.00,0.0070
2585.00,0.0070
2584.00,0.0070
2583.00,0.0070
2582.00,0.0070
2581.00,0.0070
2580.00,0.0070
2579.00,0.0070
2578.00,0.0070
2577.00,0.0070
2576.00,0.0070
2575.00,0.0070
2574.00,0.0070
2573.00,0.0069
2572.00,0.0069
2571.00,0.0068
2570.00,0.0068
2569.00,0.0068
2568.00,0.0068
2567.00,0.0068
2566.00,0.0068
2565.00,0.0068
2564.00,0.0069
2563.00,0.0069
2562.00,0.0069
2561.00,0.0069
2560.00,0.0069
2559.00,0.0069
2558.00,0.0069
2557.00,0.0069
2556.00,0.0069
2555.00,0.0069
2554.00,0.0069
2553.00,0.0069
2552.00,0.0069
2551.00,0.0069
2550.00,0.0068
2549.00,0.0068
2548.00,0.0068
2547.00,0.0068
2546.00,0.0068
2545.00,0.0067
2544.00,0.0067
2543.00,0.0067
2542.00,0.0067
2541.00,0.0066
2540.00,0.0066
2539.00,0.0066
2538.00,0.0065
2537.00,0.0065
2536.00,0.0065
2535.00,0.0065
2534.00,0.0065
2533.00,0.0065
2532.00,0.0065
2531.00,0.0065
2530.00,0.0065
2529.00,0.0065
2528.00,0.0065
2527.00,0.0064
2526.00,0.0064
2525.00,0.0064
2524.00,0.0064
2523.00,0.0064
2522.00,0.0064
2521.00,0.0064
2520.00,0.0063
2519.00,0.0063
2518.00,0.0063
2517.00,0.0063
2516.00,0.0064
2515.00,0.0064
2514.00,0.0064
2513.00,0.0064
2512.00,0.0064
2511.00,0.0063
2510.00,0.0063
2509.00,0.0063
2508.00,0.0063
2507.00,0.0063
2506.00,0.0063
2505.00,0.0064
2504.00,0.0064
2503.00,0.0064
2502.00,0.0064
2501.00,0.0064
2500.00,0.0064
2499.00,0.0064
2498.00,0.0064
2497.00,0.0064
2496.00,0.0063
2495.00,0.0063
2494.00,0.0063
2493.00,0.0064
2492.00,0.0064
2491.00,0.0064
2490.00,0.0064
2489.00,0.0064
2488.00,0.0064
2487.00,0.0063
2486.00,0.0063
2485.00,0.0063
2484.00,0.0063
2483.00,0.0063
2482.00,0.0064
2481.00,0.0064
2480.00,0.0063
2479.00,0.0063
2478.00,0.0063
2477.00,0.0063
2476.00,0.0063
2475.00,0.0063
2474.00,0.0063
2473.00,0.0063
2472.00,0.0063
2471.00,0.0063
2470.00,0.0063
2469.00,0.0063
2468.00,0.0063
2467.00,0.0063
2466.00,0.0063
2465.00,0.0063
2464.00,0.0063
2463.00,0.0063
2462.00,0.0063
2461.00,0.0063
2460.00,0.0063
2459.00,0.0063
2458.00,0.0063
2457.00,0.0063
2456.00,0.0063
2455.00,0.0063
2454.00,0.0064
2453.00,0.0063
2452.00,0.0063
2451.00,0.0063
2450.00,0.0062
2449.00,0.0062
2448.00,0.0062
2447.00,0.0062
2446.00,0.0062
2445.00,0.0062
2444.00,0.0062
2443.00,0.0061
2442.00,0.0061
2441.00,0.0061
2440.00,0.0060
2439.00,0.0060
2438.00,0.0059
2437.00,0.0059
2436.00,0.0059
2435.00,0.0059
2434.00,0.0059
2433.00,0.0059
2432.00,0.0059
2431.00,0.0059
2430.00,0.0059
2429.00,0.0059
2428.00,0.0059
2427.00,0.0058
2426.00,0.0058
2425.00,0.0058
2424.00,0.0058
2423.00,0.0057
2422.00,0.0057
2421.00,0.0057
2420.00,0.0057
2419.00,0.0057
2418.00,0.0057
2417.00,0.0057
2416.00,0.0057
2415.00,0.0057
2414.00,0.0057
2413.00,0.0057
2412.00,0.0056
2411.00,0.0056
2410.00,0.0056
2409.00,0.0055
2408.00,0.0055
2407.00,0.0055
2406.00,0.0055
2405.00,0.0055
2404.00,0.0055
2403.00,0.0055
2402.00,0.0055
2401.00,0.0055
2400.00,0.0055
2399.00,0.0054
2398.00,0.0054
2397.00,0.0054
2396.00,0.0054
2395.00,0.0054
2394.00,0.0054
2393.00,0.0054
2392.00,0.0054
2391.00,0.0054
2390.00,0.0054
2389.00,0.0054
2388.00,0.0053
2387.00,0.0053
2386.00,0.0052
2385.00,0.0052
2384.00,0.0051
2383.00,0.0051
2382.00,0.0051
2381.00,0.0051
2380.00,0.0050
2379.00,0.0050
2378.00,0.0050
2377.00,0.0050
2376.00,0.0050
2375.00,0.0051
2374.00,0.0051
2373.00,0.0051
2372.00,0.0050
2371.00,0.0050
2370.00,0.0049
2369.00,0.0049
2368.00,0.0049
2367.00,0.0049
2366.00,0.0049
2365.00,0.0049
2364.00,0.0049
2363.00,0.0050
2362.00,0.0050
2361.00,0.0050
2360.00,0.0050
2359.00,0.0050
2358.00,0.0051
2357.00,0.0051
2356.00,0.0051
2355.00,0.0051
2354.00,0.0051
2353.00,0.0051
2352.00,0.0051
2351.00,0.0051
2350.00,0.0051
2349.00,0.0051
2348.00,0.0051
2347.00,0.0050
2346.00,0.0050
2345.00,0.0051
2344.00,0.0051
2343.00,0.0052
2342.00,0.0052
2341.00,0.0052
2340.00,0.0053
2339.00,0.0053
2338.00,0.0053
2337.00,0.0054
2336.00,0.0054
2335.00,0.0054
2334.00,0.0053
2333.00,0.0053
2332.00,0.0052
2331.00,0.0052
2330.00,0.0053
2329.00,0.0054
2328.00,0.0057
2327.00,0.0060
2326.00,0.0063
2325.00,0.0064
2324.00,0.0063
2323.00,0.0062
2322.00,0.0060
2321.00,0.0059
2320.00,0.0058
2319.00,0.0057
2318.00,0.0057
2317.00,0.0057
2316.00,0.0056
2315.00,0.0056
2314.00,0.0056
2313.00,0.0055
2312.00,0.0054
2311.00,0.0054
2310.00,0.0054
2309.00,0.0054
2308.00,0.0054
2307.00,0.0054
2306.00,0.0054
2305.00,0.0055
2304.00,0.0055
2303.00,0.0055
2302.00,0.0055
2301.00,0.0055
2300.00,0.0056
2299.00,0.0056
2298.00,0.0057
2297.00,0.0057
2296.00,0.0058
2295.00,0.0059
2294.00,0.0059
2293.00,0.0060
2292.00,0.0061
2291.00,0.0061
2290.00,0.0062
2289.00,0.0062
2288.00,0.0062
2287.00,0.0062
2286.00,0.0061
2285.00,0.0061
2284.00,0.0060
2283.00,0.0060
2282.00,0.0059
2281.00,0.0059
2280.00,0.0058
2279.00,0.0058
2278.00,0.0057
2277.00,0.0057
2276.00,0.0057
2275.00,0.0056
2274.00,0.0056
2273.00,0.0056
2272.00,0.0055
2271.00,0.0055
2270.00,0.0054
2269.00,0.0054
2268.00,0.0054
2267.00,0.0054
2266.00,0.0054
2265.00,0.0053
2264.00,0.0053
2263.00,0.0053
2262.00,0.0053
2261.00,0.0053
2260.00,0.0053
2259.00,0.0053
2258.00,0.0053
2257.00,0.0053
2256.00,0.0053
2255.00,0.0052
2254.00,0.0051
2253.00,0.0051
2252.00,0.0051
2251.00,0.0051
2250.00,0.0051
2249.00,0.0051
2248.00,0.0051
2247.00,0.0051
2246.00,0.0051
2245.00,0.0052
2244.00,0.0053
2243.00,0.0053
2242.00,0.0053
2241.00,0.0053
2240.00,0.0054
2239.00,0.0054
2238.00,0.0054
2237.00,0.0053
2236.00,0.0053
2235.00,0.0052
2234.00,0.0052
2233.00,0.0052
2232.00,0.0052
2231.00,0.0053
2230.00,0.0053
2229.00,0.0052
2228.00,0.0052
2227.00,0.0052
2226.00,0.0051
2225.00,0.0051
2224.00,0.0050
2223.00,0.0051
2222.00,0.0051
2221.00,0.0051
2220.00,0.0051
2219.00,0.0051
2218.00,0.0051
2217.00,0.0050
2216.00,0.0050
2215.00,0.0050
2214.00,0.0051
2213.00,0.0051
2212.00,0.0051
2211.00,0.0051
2210.00,0.0050
2209.00,0.0048
2208.00,0.0047
2207.00,0.0047
2206.00,0.0047
2205.00,0.0048
2204.00,0.0048
2203.00,0.0049
2202.00,0.0049
2201.00,0.0048
2200.00,0.0048
2199.00,0.0048
2198.00,0.0049
2197.00,0.0051
2196.00,0.0054
2195.00,0.0056
2194.00,0.0056
2193.00,0.0056
2192.00,0.0056
2191.00,0.0055
2190.00,0.0054
2189.00,0.0053
2188.00,0.0053
2187.00,0.0053
2186.00,0.0052
2185.00,0.0052
2184.00,0.0051
2183.00,0.0049
2182.00,0.0048
2181.00,0.0047
2180.00,0.0048
2179.00,0.0048
2178.00,0.0048
2177.00,0.0048
2176.00,0.0047
2175.00,0.0047
2174.00,0.0047
2173.00,0.0048
2172.00,0.0050
2171.00,0.0051
2170.00,0.0052
2169.00,0.0053
2168.00,0.0055
2167.00,0.0056
2166.00,0.0056
2165.00,0.0057
2164.00,0.0057
2163.00,0.0056
2162.00,0.0052
2161.00,0.0043
2160.00,0.0032
2159.00,0.0022
2158.00,0.0017
2157.00,0.0017
2156.00,0.0019
2155.00,0.0022
2154.00,0.0025
2153.00,0.0028
2152.00,0.0029
2151.00,0.0030
2150.00,0.0030
2149.00,0.0030
2148.00,0.0030
2147.00,0.0031
2146.00,0.0031
2145.00,0.0032
2144.00,0.0033
2143.00,0.0032
2142.00,0.0031
2141.00,0.0030
2140.00,0.0029
2139.00,0.0029
2138.00,0.0028
2137.00,0.0027
2136.00,0.0026
2135.00,0.0026
2134.00,0.0026
2133.00,0.0027
2132.00,0.0029
2131.00,0.0031
2130.00,0.0032
2129.00,0.0033
2128.00,0.0034
2127.00,0.0035
2126.00,0.0036
2125.00,0.0037
2124.00,0.0038
2123.00,0.0040
2122.00,0.0041
2121.00,0.0041
2120.00,0.0042
2119.00,0.0043
2118.00,0.0044
2117.00,0.0044
2116.00,0.0045
2115.00,0.0045
2114.00,0.0045
2113.00,0.0045
2112.00,0.0044
2111.00,0.0045
2110.00,0.0045
2109.00,0.0045
2108.00,0.0045
2107.00,0.0045
2106.00,0.0045
2105.00,0.0045
2104.00,0.0045
2103.00,0.0045
2102.00,0.0045
2101.00,0.0044
2100.00,0.0044
2099.00,0.0043
2098.00,0.0041
2097.00,0.0039
2096.00,0.0037
2095.00,0.0037
2094.00,0.0037
2093.00,0.0038
2092.00,0.0040
2091.00,0.0042
2090.00,0.0043
2089.00,0.0043
2088.00,0.0043
2087.00,0.0043
2086.00,0.0043
2085.00,0.0043
2084.00,0.0043
2083.00,0.0043
2082.00,0.0043
2081.00,0.0044
2080.00,0.0044
2079.00,0.0045
2078.00,0.0045
2077.00,0.0045
2076.00,0.0045
2075.00,0.0044
2074.00,0.0043
2073.00,0.0042
2072.00,0.0042
2071.00,0.0042
2070.00,0.0042
2069.00,0.0041
2068.00,0.0041
2067.00,0.0041
2066.00,0.0041
2065.00,0.0042
2064.00,0.0043
2063.00,0.0043
2062.00,0.0042
2061.00,0.0042
2060.00,0.0043
2059.00,0.0043
2058.00,0.0043
2057.00,0.0043
2056.00,0.0043
2055.00,0.0045
2054.00,0.0047
2053.00,0.0051
2052.00,0.0054
2051.00,0.0055
2050.00,0.0053
2049.00,0.0049
2048.00,0.0046
2047.00,0.0044
2046.00,0.0043
2045.00,0.0042
2044.00,0.0043
2043.00,0.0043
2042.00,0.0043
2041.00,0.0043
2040.00,0.0043
2039.00,0.0043
2038.00,0.0043
2037.00,0.0042
2036.00,0.0040
2035.00,0.0037
2034.00,0.0034
2033.00,0.0032
2032.00,0.0030
2031.00,0.0029
2030.00,0.0028
2029.00,0.0028
2028.00,0.0028
2027.00,0.0028
2026.00,0.0028
2025.00,0.0028
2024.00,0.0028
2023.00,0.0028
2022.00,0.0028
2021.00,0.0028
2020.00,0.0029
2019.00,0.0029
2018.00,0.0030
2017.00,0.0030
2016.00,0.0029
2015.00,0.0028
2014.00,0.0026
2013.00,0.0027
2012.00,0.0028
2011.00,0.0029
2010.00,0.0030
2009.00,0.0029
2008.00,0.0028
2007.00,0.0026
2006.00,0.0024
2005.00,0.0023
2004.00,0.0023
2003.00,0.0025
2002.00,0.0027
2001.00,0.0029
2000.00,0.0030
1999.00,0.0031
1998.00,0.0031
1997.00,0.0032
1996.00,0.0033
1995.00,0.0033
1994.00,0.0034
1993.00,0.0034
1992.00,0.0034
1991.00,0.0035
1990.00,0.0035
1989.00,0.0035
1988.00,0.0035
1987.00,0.0035
1986.00,0.0035
1985.00,0.0035
1984.00,0.0036
1983.00,0.0037
1982.00,0.0037
1981.00,0.0037
1980.00,0.0034
1979.00,0.0029
1978.00,0.0024
1977.00,0.0020
1976.00,0.0018
1975.00,0.0016
1974.00,0.0015
1973.00,0.0015
1972.00,0.0016
1971.00,0.0017
1970.00,0.0017
1969.00,0.0018
1968.00,0.0019
1967.00,0.0020
1966.00,0.0021
1965.00,0.0022
1964.00,0.0024
1963.00,0.0025
1962.00,0.0025
1961.00,0.0024
1960.00,0.0022
1959.00,0.0022
1958.00,0.0022
1957.00,0.0023
1956.00,0.0024
1955.00,0.0025
1954.00,0.0026
1953.00,0.0027
1952.00,0.0028
1951.00,0.0029
1950.00,0.0030
1949.00,0.0031
1948.00,0.0032
1947.00,0.0033
1946.00,0.0033
1945.00,0.0034
1944.00,0.0035
1943.00,0.0036
1942.00,0.0036
1941.00,0.0036
1940.00,0.0036
1939.00,0.0036
1938.00,0.0037
1937.00,0.0037
1936.00,0.0038
1935.00,0.0038
1934.00,0.0038
1933.00,0.0039
1932.00,0.0039
1931.00,0.0039
1930.00,0.0039
1929.00,0.0039
1928.00,0.0039
1927.00,0.0039
1926.00,0.0038
1925.00,0.0038
1924.00,0.0038
1923.00,0.0039
1922.00,0.0041
1921.00,0.0042
1920.00,0.0042
1919.00,0.0043
1918.00,0.0043
1917.00,0.0043
1916.00,0.0043
1915.00,0.0043
1914.00,0.0042
1913.00,0.0042
1912.00,0.0042
1911.00,0.0042
1910.00,0.0041
1909.00,0.0041
1908.00,0.0041
1907.00,0.0042
1906.00,0.0042
1905.00,0.0042
1904.00,0.0043
1903.00,0.0043
1902.00,0.0044
1901.00,0.0044
1900.00,0.0043
1899.00,0.0043
1898.00,0.0042
1897.00,0.0042
1896.00,0.0042
1895.00,0.0042
1894.00,0.0041
1893.00,0.0041
1892.00,0.0041
1891.00,0.0040
1890.00,0.0039
1889.00,0.0039
1888.00,0.0039
1887.00,0.0039
1886.00,0.0040
1885.00,0.0040
1884.00,0.0041
1883.00,0.0041
1882.00,0.0041
1881.00,0.0040
1880.00,0.0041
1879.00,0.0041
1878.00,0.0041
1877.00,0.0041
1876.00,0.0041
1875.00,0.0041
1874.00,0.0042
1873.00,0.0042
1872.00,0.0042
1871.00,0.0042
1870.00,0.0042
1869.00,0.0042
1868.00,0.0042
1867.00,0.0042
1866.00,0.0042
1865.00,0.0042
1864.00,0.0043
1863.00,0.0043
1862.00,0.0043
1861.00,0.0043
1860.00,0.0043
1859.00,0.0042
1858.00,0.0042
1857.00,0.0041
1856.00,0.0041
1855.00,0.0042
1854.00,0.0042
1853.00,0.0042
1852.00,0.0042
1851.00,0.0042
1850.00,0.0042
1849.00,0.0042
1848.00,0.0042
1847.00,0.0042
1846.00,0.0041
1845.00,0.0041
1844.00,0.0041
1843.00,0.0040
1842.00,0.0040
1841.00,0.0040
1840.00,0.0040
1839.00,0.0040
1838.00,0.0041
1837.00,0.0041
1836.00,0.0042
1835.00,0.0042
1834.00,0.0042
1833.00,0.0042
1832.00,0.0042
1831.00,0.0041
1830.00,0.0041
1829.00,0.0041
1828.00,0.0041
1827.00,0.0042
1826.00,0.0042
1825.00,0.0042
1824.00,0.0042
1823.00,0.0042
1822.00,0.0042
1821.00,0.0042
1820.00,0.0041
1819.00,0.0040
1818.00,0.0039
1817.00,0.0039
1816.00,0.0039
1815.00,0.0040
1814.00,0.0040
1813.00,0.0040
1812.00,0.0041
1811.00,0.0041
1810.00,0.0041
1809.00,0.0042
1808.00,0.0042
1807.00,0.0042
1806.00,0.0043
1805.00,0.0043
1804.00,0.0043
1803.00,0.0043
1802.00,0.0043
1801.00,0.0043
1800.00,0.0043
1799.00,0.0044
1798.00,0.0044
1797.00,0.0045
1796.00,0.0045
1795.00,0.0045
1794.00,0.0045
1793.00,0.0045
1792.00,0.0045
1791.00,0.0045
1790.00,0.0045
1789.00,0.0045
1788.00,0.0045
1787.00,0.0045
1786.00,0.0045
1785.00,0.0046
1784.00,0.0046
1783.00,0.0046
1782.00,0.0045
1781.00,0.0045
1780.00,0.0045
1779.00,0.0045
1778.00,0.0045
1777.00,0.0045
1776.00,0.0046
1775.00,0.0046
1774.00,0.0046
1773.00,0.0046
1772.00,0.0046
1771.00,0.0046
1770.00,0.0046
1769.00,0.0046
1768.00,0.0046
1767.00,0.0046
1766.00,0.0046
1765.00,0.0046
1764.00,0.0046
1763.00,0.0046
1762.00,0.0046
1761.00,0.0046
1760.00,0.0046
1759.00,0.0046
1758.00,0.0046
1757.00,0.0046
1756.00,0.0046
1755.00,0.0046
1754.00,0.0046
1753.00,0.0046
1752.00,0.0046
1751.00,0.0046
1750.00,0.0046
1749.00,0.0046
1748.00,0.0046
1747.00,0.0046
1746.00,0.0046
1745.00,0.0046
1744.00,0.0045
1743.00,0.0045
1742.00,0.0045
1741.00,0.0045
1740.00,0.0045
1739.00,0.0045
1738.00,0.0045
1737.00,0.0045
1736.00,0.0045
1735.00,0.0045
1734.00,0.0045
1733.00,0.0045
1732.00,0.0045
1731.00,0.0045
1730.00,0.0045
1729.00,0.0045
1728.00,0.0046
1727.00,0.0046
1726.00,0.0046
1725.00,0.0046
1724.00,0.0046
1723.00,0.0047
1722.00,0.0047
1721.00,0.0048
1720.00,0.0048
1719.00,0.0048
1718.00,0.0048
1717.00,0.0048
1716.00,0.0049
1715.00,0.0049
1714.00,0.0049
1713.00,0.0050
1712.00,0.0050
1711.00,0.0050
1710.00,0.0050
1709.00,0.0050
1708.00,0.0050
1707.00,0.0049
1706.00,0.0049
1705.00,0.0049
1704.00,0.0048
1703.00,0.0047
1702.00,0.0047
1701.00,0.0046
1700.00,0.0047
1699.00,0.0047
1698.00,0.0047
1697.00,0.0047
1696.00,0.0047
1695.00,0.0046
1694.00,0.0046
1693.00,0.0046
1692.00,0.0046
1691.00,0.0046
1690.00,0.0046
1689.00,0.0046
1688.00,0.0046
1687.00,0.0046
1686.00,0.0046
1685.00,0.0046
1684.00,0.0046
1683.00,0.0046
1682.00,0.0046
1681.00,0.0046
1680.00,0.0046
1679.00,0.0047
1678.00,0.0047
1677.00,0.0047
1676.00,0.0047
1675.00,0.0048
1674.00,0.0048
1673.00,0.0048
1672.00,0.0048
1671.00,0.0048
1670.00,0.0048
1669.00,0.0048
1668.00,0.0048
1667.00,0.0048
1666.00,0.0049
1665.00,0.0049
1664.00,0.0049
1663.00,0.0049
1662.00,0.0049
1661.00,0.0049
1660.00,0.0049
1659.00,0.0049
1658.00,0.0049
1657.00,0.0049
1656.00,0.0049
1655.00,0.0049
1654.00,0.0049
1653.00,0.0049
1652.00,0.0049
1651.00,0.0049
1650.00,0.0048
1649.00,0.0048
1648.00,0.0048
1647.00,0.0048
1646.00,0.0048
1645.00,0.0048
1644.00,0.0049
1643.00,0.0048
1642.00,0.0048
1641.00,0.0048
1640.00,0.0048
1639.00,0.0048
1638.00,0.0048
1637.00,0.0048
1636.00,0.0047
1635.00,0.0047
1634.00,0.0047
1633.00,0.0047
1632.00,0.0047
1631.00,0.0047
1630.00,0.0047
1629.00,0.0047
1628.00,0.0047
1627.00,0.0047
1626.00,0.0047
1625.00,0.0047
1624.00,0.0048
1623.00,0.0048
1622.00,0.0048
1621.00,0.0048
1620.00,0.0048
1619.00,0.0048
1618.00,0.0048
1617.00,0.0047
1616.00,0.0047
1615.00,0.0047
1614.00,0.0047
1613.00,0.0047
1612.00,0.0047
1611.00,0.0047
1610.00,0.0047
1609.00,0.0047
1608.00,0.0047
1607.00,0.0047
1606.00,0.0047
1605.00,0.0048
1604.00,0.0048
1603.00,0.0048
1602.00,0.0048
1601.00,0.0048
1600.00,0.0048
1599.00,0.0048
1598.00,0.0048
1597.00,0.0048
1596.00,0.0048
1595.00,0.0049
1594.00,0.0049
1593.00,0.0049
1592.00,0.0049
1591.00,0.0049
1590.00,0.0048
1589.00,0.0048
1588.00,0.0048
1587.00,0.0048
1586.00,0.0048
1585.00,0.0048
1584.00,0.0048
1583.00,0.0048
1582.00,0.0048
1581.00,0.0048
1580.00,0.0048
1579.00,0.0048
1578.00,0.0048
1577.00,0.0049
1576.00,0.0049
1575.00,0.0049
1574.00,0.0049
1573.00,0.0049
1572.00,0.0049
1571.00,0.0049
1570.00,0.0049
1569.00,0.0048
1568.00,0.0048
1567.00,0.0048
1566.00,0.0048
1565.00,0.0048
1564.00,0.0048
1563.00,0.0048
1562.00,0.0048
1561.00,0.0048
1560.00,0.0048
1559.00,0.0049
1558.00,0.0049
1557.00,0.0048
1556.00,0.0049
1555.00,0.0049
1554.00,0.0049
1553.00,0.0049
1552.00,0.0049
1551.00,0.0049
1550.00,0.0049
1549.00,0.0049
1548.00,0.0049
1547.00,0.0049
1546.00,0.0049
1545.00,0.0049
1544.00,0.0050
1543.00,0.0050
1542.00,0.0050
1541.00,0.0050
1540.00,0.0050
1539.00,0.0050
1538.00,0.0050
1537.00,0.0050
1536.00,0.0050
1535.00,0.0050
1534.00,0.0050
1533.00,0.0050
1532.00,0.0050
1531.00,0.0050
1530.00,0.0050
1529.00,0.0050
1528.00,0.0050
1527.00,0.0050
1526.00,0.0050
1525.00,0.0050
1524.00,0.0050
1523.00,0.0050
1522.00,0.0050
1521.00,0.0050
1520.00,0.0050
1519.00,0.0051
1518.00,0.0051
1517.00,0.0051
1516.00,0.0051
1515.00,0.0052
1514.00,0.0052
1513.00,0.0052
1512.00,0.0052
1511.00,0.0052
1510.00,0.0053
1509.00,0.0053
1508.00,0.0053
1507.00,0.0054
1506.00,0.0054
1505.00,0.0055
1504.00,0.0055
1503.00,0.0055
1502.00,0.0056
1501.00,0.0056
1500.00,0.0057
1499.00,0.0057
1498.00,0.0057
1497.00,0.0057
1496.00,0.0058
1495.00,0.0059
1494.00,0.0059
1493.00,0.0060
1492.00,0.0062
1491.00,0.0063
1490.00,0.0064
1489.00,0.0066
1488.00,0.0069
1487.00,0.0071
1486.00,0.0074
1485.00,0.0077
1484.00,0.0082
1483.00,0.0087
1482.00,0.0094
1481.00,0.0103
1480.00,0.0113
1479.00,0.0124
1478.00,0.0135
1477.00,0.0145
1476.00,0.0152
1475.00,0.0154
1474.00,0.0152
1473.00,0.0147
1472.00,0.0142
1471.00,0.0139
1470.00,0.0140
1469.00,0.0144
1468.00,0.0150
1467.00,0.0157
1466.00,0.0166
1465.00,0.0175
1464.00,0.0184
1463.00,0.0193
1462.00,0.0202
1461.00,0.0210
1460.00,0.0215
1459.00,0.0216
1458.00,0.0210
1457.00,0.0199
1456.00,0.0186
1455.00,0.0177
1454.00,0.0171
1453.00,0.0168
1452.00,0.0167
1451.00,0.0167
1450.00,0.0169
1449.00,0.0173
1448.00,0.0178
1447.00,0.0185
1446.00,0.0192
1445.00,0.0199
1444.00,0.0207
1443.00,0.0214
1442.00,0.0220
1441.00,0.0225
1440.00,0.0228
1439.00,0.0231
1438.00,0.0234
1437.00,0.0236
1436.00,0.0238
1435.00,0.0241
1434.00,0.0244
1433.00,0.0249
1432.00,0.0254
1431.00,0.0258
1430.00,0.0261
1429.00,0.0262
1428.00,0.0262
1427.00,0.0261
1426.00,0.0260
1425.00,0.0259
1424.00,0.0258
1423.00,0.0256
1422.00,0.0253
1421.00,0.0248
1420.00,0.0241
1419.00,0.0233
1418.00,0.0225
1417.00,0.0219
1416.00,0.0215
1415.00,0.0212
1414.00,0.0212
1413.00,0.0213
1412.00,0.0216
1411.00,0.0220
1410.00,0.0223
1409.00,0.0224
1408.00,0.0224
1407.00,0.0220
1406.00,0.0214
1405.00,0.0206
1404.00,0.0196
1403.00,0.0187
1402.00,0.0178
1401.00,0.0171
1400.00,0.0166
1399.00,0.0162
1398.00,0.0159
1397.00,0.0159
1396.00,0.0160
1395.00,0.0162
1394.00,0.0165
1393.00,0.0168
1392.00,0.0173
1391.00,0.0178
1390.00,0.0184
1389.00,0.0190
1388.00,0.0195
1387.00,0.0200
1386.00,0.0203
1385.00,0.0203
1384.00,0.0201
1383.00,0.0197
1382.00,0.0193
1381.00,0.0190
1380.00,0.0189
1379.00,0.0193
1378.00,0.0200
1377.00,0.0208
1376.00,0.0216
1375.00,0.0223
1374.00,0.0227
1373.00,0.0228
1372.00,0.0228
1371.00,0.0228
1370.00,0.0229
1369.00,0.0232
1368.00,0.0237
1367.00,0.0243
1366.00,0.0247
1365.00,0.0247
1364.00,0.0244
1363.00,0.0237
1362.00,0.0227
1361.00,0.0218
1360.00,0.0210
1359.00,0.0204
1358.00,0.0200
1357.00,0.0199
1356.00,0.0200
1355.00,0.0205
1354.00,0.0214
1353.00,0.0225
1352.00,0.0239
1351.00,0.0255
1350.00,0.0270
1349.00,0.0285
1348.00,0.0297
1347.00,0.0305
1346.00,0.0311
1345.00,0.0316
1344.00,0.0318
1343.00,0.0319
1342.00,0.0315
1341.00,0.0305
1340.00,0.0290
1339.00,0.0271
1338.00,0.0251
1337.00,0.0235
1336.00,0.0222
1335.00,0.0213
1334.00,0.0209
1333.00,0.0207
1332.00,0.0208
1331.00,0.0211
1330.00,0.0215
1329.00,0.0220
1328.00,0.0227
1327.00,0.0234
1326.00,0.0245
1325.00,0.0256
1324.00,0.0267
1323.00,0.0274
1322.00,0.0275
1321.00,0.0271
1320.00,0.0263
1319.00,0.0254
1318.00,0.0244
1317.00,0.0234
1316.00,0.0225
1315.00,0.0217
1314.00,0.0209
1313.00,0.0201
1312.00,0.0194
1311.00,0.0189
1310.00,0.0185
1309.00,0.0182
1308.00,0.0180
1307.00,0.0179
1306.00,0.0179
1305.00,0.0179
1304.00,0.0178
1303.00,0.0177
1302.00,0.0173
1301.00,0.0168
1300.00,0.0161
1299.00,0.0155
1298.00,0.0148
1297.00,0.0142
1296.00,0.0137
1295.00,0.0133
1294.00,0.0130
1293.00,0.0129
1292.00,0.0129
1291.00,0.0130
1290.00,0.0133
1289.00,0.0137
1288.00,0.0143
1287.00,0.0149
1286.00,0.0157
1285.00,0.0164
1284.00,0.0172
1283.00,0.0181
1282.00,0.0189
1281.00,0.0196
1280.00,0.0202
1279.00,0.0204
1278.00,0.0203
1277.00,0.0198
1276.00,0.0191
1275.00,0.0183
1274.00,0.0177
1273.00,0.0172
1272.00,0.0167
1271.00,0.0162
1270.00,0.0157
1269.00,0.0151
1268.00,0.0146
1267.00,0.0141
1266.00,0.0136
1265.00,0.0131
1264.00,0.0126
1263.00,0.0122
1262.00,0.0117
1261.00,0.0114
1260.00,0.0111
1259.00,0.0108
1258.00,0.0107
1257.00,0.0106
1256.00,0.0105
1255.00,0.0106
1254.00,0.0107
1253.00,0.0109
1252.00,0.0112
1251.00,0.0117
1250.00,0.0124
1249.00,0.0133
1248.00,0.0144
1247.00,0.0157
1246.00,0.0173
1245.00,0.0189
1244.00,0.0205
1243.00,0.0220
1242.00,0.0232
1241.00,0.0242
1240.00,0.0249
1239.00,0.0255
1238.00,0.0259
1237.00,0.0261
1236.00,0.0261
1235.00,0.0259
1234.00,0.0257
1233.00,0.0253
1232.00,0.0247
1231.00,0.0238
1230.00,0.0226
1229.00,0.0212
1228.00,0.0197
1227.00,0.0182
1226.00,0.0169
1225.00,0.0158
1224.00,0.0149
1223.00,0.0141
1222.00,0.0135
1221.00,0.0130
1220.00,0.0126
1219.00,0.0124
1218.00,0.0122
1217.00,0.0122
1216.00,0.0124
1215.00,0.0127
1214.00,0.0133
1213.00,0.0143
1212.00,0.0155
1211.00,0.0169
1210.00,0.0183
1209.00,0.0194
1208.00,0.0197
1207.00,0.0194
1206.00,0.0184
1205.00,0.0172
1204.00,0.0160
1203.00,0.0149
1202.00,0.0139
1201.00,0.0131
1200.00,0.0124
1199.00,0.0118
1198.00,0.0112
1197.00,0.0107
1196.00,0.0102
1195.00,0.0098
1194.00,0.0095
1193.00,0.0092
1192.00,0.0089
1191.00,0.0087
1190.00,0.0085
1189.00,0.0084
1188.00,0.0083
1187.00,0.0082
1186.00,0.0081
1185.00,0.0081
1184.00,0.0080
1183.00,0.0081
1182.00,0.0081
1181.00,0.0083
1180.00,0.0085
1179.00,0.0088
1178.00,0.0094
1177.00,0.0102
1176.00,0.0112
1175.00,0.0124
1174.00,0.0136
1173.00,0.0147
1172.00,0.0156
1171.00,0.0161
1170.00,0.0162
1169.00,0.0159
1168.00,0.0154
1167.00,0.0149
1166.00,0.0147
1165.00,0.0148
1164.00,0.0154
1163.00,0.0160
1162.00,0.0166
1161.00,0.0167
1160.00,0.0163
1159.00,0.0155
1158.00,0.0145
1157.00,0.0134
1156.00,0.0126
1155.00,0.0121
1154.00,0.0118
1153.00,0.0117
1152.00,0.0118
1151.00,0.0120
1150.00,0.0124
1149.00,0.0130
1148.00,0.0137
1147.00,0.0146
1146.00,0.0157
1145.00,0.0171
1144.00,0.0189
1143.00,0.0211
1142.00,0.0236
1141.00,0.0263
1140.00,0.0291
1139.00,0.0316
1138.00,0.0337
1137.00,0.0354
1136.00,0.0367
1135.00,0.0377
1134.00,0.0387
1133.00,0.0399
1132.00,0.0413
1131.00,0.0428
1130.00,0.0444
1129.00,0.0457
1128.00,0.0467
1127.00,0.0472
1126.00,0.0473
1125.00,0.0471
1124.00,0.0468
1123.00,0.0465
1122.00,0.0460
1121.00,0.0458
1120.00,0.0460
1119.00,0.0467
1118.00,0.0479
1117.00,0.0492
1116.00,0.0501
1115.00,0.0502
1114.00,0.0494
1113.00,0.0477
1112.00,0.0457
1111.00,0.0437
1110.00,0.0423
1109.00,0.0418
1108.00,0.0424
1107.00,0.0439
1106.00,0.0457
1105.00,0.0473
1104.00,0.0481
1103.00,0.0478
1102.00,0.0463
1101.00,0.0440
1100.00,0.0414
1099.00,0.0389
1098.00,0.0367
1097.00,0.0349
1096.00,0.0334
1095.00,0.0322
1094.00,0.0313
1093.00,0.0311
1092.00,0.0314
1091.00,0.0324
1090.00,0.0339
1089.00,0.0357
1088.00,0.0377
1087.00,0.0398
1086.00,0.0417
1085.00,0.0435
1084.00,0.0452
1083.00,0.0468
1082.00,0.0486
1081.00,0.0505
1080.00,0.0526
1079.00,0.0547
1078.00,0.0567
1077.00,0.0589
1076.00,0.0613
1075.00,0.0641
1074.00,0.0672
1073.00,0.0708
1072.00,0.0748
1071.00,0.0792
1070.00,0.0836
1069.00,0.0879
1068.00,0.0915
1067.00,0.0938
1066.00,0.0947
1065.00,0.0943
1064.00,0.0928
1063.00,0.0905
1062.00,0.0880
1061.00,0.0858
1060.00,0.0844
1059.00,0.0841
1058.00,0.0849
1057.00,0.0869
1056.00,0.0896
1055.00,0.0926
1054.00,0.0954
1053.00,0.0976
1052.00,0.0993
1051.00,0.1002
1050.00,0.1006
1049.00,0.1005
1048.00,0.0998
1047.00,0.0984
1046.00,0.0965
1045.00,0.0944
1044.00,0.0926
1043.00,0.0914
1042.00,0.0908
1041.00,0.0908
1040.00,0.0911
1039.00,0.0917
1038.00,0.0922
1037.00,0.0922
1036.00,0.0910
1035.00,0.0883
1034.00,0.0842
1033.00,0.0794
1032.00,0.0743
1031.00,0.0693
1030.00,0.0647
1029.00,0.0605
1028.00,0.0567
1027.00,0.0535
1026.00,0.0507
1025.00,0.0485
1024.00,0.0469
1023.00,0.0460
1022.00,0.0461
1021.00,0.0472
1020.00,0.0495
1019.00,0.0528
1018.00,0.0569
1017.00,0.0614
1016.00,0.0657
1015.00,0.0694
1014.00,0.0721
1013.00,0.0735
1012.00,0.0738
1011.00,0.0733
1010.00,0.0726
1009.00,0.0724
1008.00,0.0731
1007.00,0.0747
1006.00,0.0768
1005.00,0.0787
1004.00,0.0798
1003.00,0.0796
1002.00,0.0783
1001.00,0.0762
1000.00,0.0740
999.00,0.0721
998.00,0.0710
997.00,0.0712
996.00,0.0731
995.00,0.0767
994.00,0.0821
993.00,0.0887
992.00,0.0956
991.00,0.1018
990.00,0.1063
989.00,0.1087
988.00,0.1089
987.00,0.1074
986.00,0.1047
985.00,0.1011
984.00,0.0971
983.00,0.0926
982.00,0.0879
981.00,0.0831
980.00,0.0783
979.00,0.0735
978.00,0.0690
977.00,0.0647
976.00,0.0608
975.00,0.0572
974.00,0.0539
973.00,0.0509
972.00,0.0481
971.00,0.0456
970.00,0.0433
969.00,0.0412
968.00,0.0393
967.00,0.0376
966.00,0.0360
965.00,0.0345
964.00,0.0333
963.00,0.0321
962.00,0.0310
961.00,0.0301
960.00,0.0292
959.00,0.0284
958.00,0.0276
957.00,0.0270
956.00,0.0264
955.00,0.0260
954.00,0.0258
953.00,0.0258
952.00,0.0259
951.00,0.0264
950.00,0.0273
949.00,0.0287
948.00,0.0308
947.00,0.0338
946.00,0.0376
945.00,0.0417
944.00,0.0455
943.00,0.0481
942.00,0.0490
941.00,0.0482
940.00,0.0461
939.00,0.0432
938.00,0.0401
937.00,0.0373
936.00,0.0349
935.00,0.0329
934.00,0.0314
933.00,0.0303
932.00,0.0296
931.00,0.0294
930.00,0.0297
929.00,0.0306
928.00,0.0324
927.00,0.0351
926.00,0.0388
925.00,0.0436
924.00,0.0492
923.00,0.0547
922.00,0.0595
921.00,0.0629
920.00,0.0647
919.00,0.0656
918.00,0.0663
917.00,0.0675
916.00,0.0691
915.00,0.0710
914.00,0.0730
913.00,0.0756
912.00,0.0792
911.00,0.0838
910.00,0.0886
909.00,0.0922
908.00,0.0936
907.00,0.0924
906.00,0.0889
905.00,0.0840
904.00,0.0785
903.00,0.0728
902.00,0.0675
901.00,0.0626
900.00,0.0583
899.00,0.0544
898.00,0.0510
897.00,0.0480
896.00,0.0453
895.00,0.0429
894.00,0.0408
893.00,0.0389
892.00,0.0372
891.00,0.0356
890.00,0.0342
889.00,0.0329
888.00,0.0318
887.00,0.0308
886.00,0.0299
885.00,0.0291
884.00,0.0285
883.00,0.0280
882.00,0.0276
881.00,0.0273
880.00,0.0272
879.00,0.0274
878.00,0.0278
877.00,0.0286
876.00,0.0298
875.00,0.0314
874.00,0.0337
873.00,0.0369
872.00,0.0411
871.00,0.0463
870.00,0.0518
869.00,0.0568
868.00,0.0605
867.00,0.0621
866.00,0.0616
865.00,0.0594
864.00,0.0561
863.00,0.0525
862.00,0.0489
861.00,0.0457
860.00,0.0430
859.00,0.0409
858.00,0.0393
857.00,0.0385
856.00,0.0385
855.00,0.0397
854.00,0.0420
853.00,0.0455
852.00,0.0497
851.00,0.0538
850.00,0.0567
849.00,0.0577
848.00,0.0567
847.00,0.0541
846.00,0.0505
845.00,0.0468
844.00,0.0434
843.00,0.0404
842.00,0.0380
841.00,0.0360
840.00,0.0343
839.00,0.0329
838.00,0.0317
837.00,0.0306
836.00,0.0296
835.00,0.0288
834.00,0.0280
833.00,0.0273
832.00,0.0267
831.00,0.0262
830.00,0.0257
829.00,0.0253
828.00,0.0249
827.00,0.0245
826.00,0.0241
825.00,0.0238
824.00,0.0234
823.00,0.0231
822.00,0.0228
821.00,0.0226
820.00,0.0223
819.00,0.0221
818.00,0.0219
817.00,0.0216
816.00,0.0215
815.00,0.0213
814.00,0.0211
813.00,0.0210
812.00,0.0209
811.00,0.0208
810.00,0.0206
809.00,0.0205
808.00,0.0205
807.00,0.0204
806.00,0.0203
805.00,0.0202
804.00,0.0201
803.00,0.0201
802.00,0.0201
801.00,0.0201
800.00,0.0201
799.00,0.0201
798.00,0.0201
797.00,0.0201
796.00,0.0202
795.00,0.0202
794.00,0.0202
793.00,0.0202
792.00,0.0203
791.00,0.0204
790.00,0.0205
789.00,0.0205
788.00,0.0206
787.00,0.0207
786.00,0.0208
785.00,0.0209
784.00,0.0210
783.00,0.0210
782.00,0.0210
781.00,0.0210
780.00,0.0210
779.00,0.0210
778.00,0.0211
777.00,0.0211
776.00,0.0212
775.00,0.0213
774.00,0.0214
773.00,0.0215
772.00,0.0215
771.00,0.0216
770.00,0.0217
769.00,0.0219
768.00,0.0220
767.00,0.0222
766.00,0.0224
765.00,0.0226
764.00,0.0227
763.00,0.0229
762.00,0.0232
761.00,0.0234
760.00,0.0237
759.00,0.0240
758.00,0.0243
757.00,0.0245
756.00,0.0248
755.00,0.0251
754.00,0.0253
753.00,0.0256
752.00,0.0259
751.00,0.0262
750.00,0.0264
749.00,0.0268
748.00,0.0271
747.00,0.0275
746.00,0.0278
745.00,0.0281
744.00,0.0285
743.00,0.0288
742.00,0.0293
741.00,0.0300
740.00,0.0309
739.00,0.0322
738.00,0.0337
737.00,0.0356
736.00,0.0375
735.00,0.0392
734.00,0.0406
733.00,0.0414
732.00,0.0418
731.00,0.0418
730.00,0.0416
729.00,0.0413
728.00,0.0410
727.00,0.0406
726.00,0.0402
725.00,0.0398
724.00,0.0395
723.00,0.0391
722.00,0.0386
721.00,0.0382
720.00,0.0378
719.00,0.0374
718.00,0.0371
717.00,0.0368
716.00,0.0366
715.00,0.0363
714.00,0.0360
713.00,0.0358
712.00,0.0357
711.00,0.0357
710.00,0.0357
709.00,0.0358
708.00,0.0359
707.00,0.0363
706.00,0.0367
705.00,0.0374
704.00,0.0382
703.00,0.0392
702.00,0.0402
701.00,0.0414
700.00,0.0426
699.00,0.0437
698.00,0.0448
697.00,0.0458
696.00,0.0467
695.00,0.0474
694.00,0.0480
693.00,0.0486
692.00,0.0491
691.00,0.0498
690.00,0.0505
689.00,0.0512
688.00,0.0521
687.00,0.0531
686.00,0.0540
685.00,0.0549
684.00,0.0558
683.00,0.0567
682.00,0.0574
681.00,0.0579
680.00,0.0580
679.00,0.0578
678.00,0.0573
677.00,0.0565
676.00,0.0557
675.00,0.0548
674.00,0.0539
673.00,0.0530
672.00,0.0522
671.00,0.0515
670.00,0.0509
669.00,0.0503
668.00,0.0498
667.00,0.0493
666.00,0.0489
665.00,0.0485
664.00,0.0481
663.00,0.0478
662.00,0.0476
661.00,0.0474
660.00,0.0472
659.00,0.0471
658.00,0.0471
657.00,0.0471
656.00,0.0471
655.00,0.0473
654.00,0.0475
653.00,0.0479
652.00,0.0483
651.00,0.0488
650.00,0.0495
649.00,0.0502
648.00,0.0511
647.00,0.0522
646.00,0.0533
645.00,0.0546
644.00,0.0559
643.00,0.0570
642.00,0.0579
641.00,0.0583
640.00,0.0584
639.00,0.0580
638.00,0.0572
637.00,0.0563
636.00,0.0553
635.00,0.0544
634.00,0.0536
633.00,0.0530
632.00,0.0526
631.00,0.0524
630.00,0.0523
629.00,0.0525
628.00,0.0527
627.00,0.0531
626.00,0.0535
625.00,0.0539
624.00,0.0544
623.00,0.0549
622.00,0.0553
621.00,0.0557
620.00,0.0562
619.00,0.0566
618.00,0.0569
617.00,0.0573
616.00,0.0578
615.00,0.0583
614.00,0.0589
613.00,0.0594
612.00,0.0600
611.00,0.0606
610.00,0.0611
609.00,0.0618
608.00,0.0626
607.00,0.0633
606.00,0.0640
605.00,0.0647
604.00,0.0654
603.00,0.0662
602.00,0.0669
601.00,0.0678
600.00,0.0687
599.00,0.0695
598.00,0.0703
597.00,0.0712
596.00,0.0721
595.00,0.0730
594.00,0.0737
593.00,0.0745
592.00,0.0751
591.00,0.0758
590.00,0.0764
589.00,0.0772
588.00,0.0783
587.00,0.0797
586.00,0.0813
585.00,0.0830
584.00,0.0846
583.00,0.0859
582.00,0.0866
581.00,0.0868
580.00,0.0866
579.00,0.0862
578.00,0.0857
577.00,0.0852
576.00,0.0848
575.00,0.0844
574.00,0.0840
573.00,0.0837
572.00,0.0835
571.00,0.0833
570.00,0.0830
569.00,0.0829
568.00,0.0830
567.00,0.0832
566.00,0.0834
565.00,0.0837
564.00,0.0841
563.00,0.0845
562.00,0.0849
561.00,0.0855
560.00,0.0862
559.00,0.0870
558.00,0.0879
557.00,0.0891
556.00,0.0909
555.00,0.0932
554.00,0.0960
553.00,0.0989
552.00,0.1016
551.00,0.1037
550.00,0.1048
549.00,0.1049
548.00,0.1039
547.00,0.1020
546.00,0.0993
545.00,0.0963
544.00,0.0936
543.00,0.0915
542.00,0.0904
541.00,0.0911
540.00,0.0938
539.00,0.0980
538.00,0.1023
537.00,0.1056
536.00,0.1070
535.00,0.1065
534.00,0.1049
533.00,0.1029
532.00,0.1011
531.00,0.0995
530.00,0.0982
529.00,0.0972
528.00,0.0967
527.00,0.0970
526.00,0.0979
525.00,0.0997
524.00,0.1019
523.00,0.1040
522.00,0.1054
521.00,0.1057
520.00,0.1050
519.00,0.1033
518.00,0.1011
517.00,0.0989
516.00,0.0968
515.00,0.0949
514.00,0.0930
513.00,0.0912
512.00,0.0896
511.00,0.0880
510.00,0.0866
509.00,0.0854
508.00,0.0844
507.00,0.0835
506.00,0.0828
505.00,0.0822
504.00,0.0818
503.00,0.0814
502.00,0.0810
501.00,0.0807
500.00,0.0804
499.00,0.0800
498.00,0.0794
497.00,0.0787
496.00,0.0776
495.00,0.0764
494.00,0.0749
493.00,0.0733
492.00,0.0719
491.00,0.0704
490.00,0.0690
489.00,0.0677
488.00,0.0666
487.00,0.0655
486.00,0.0643
485.00,0.0631
484.00,0.0621
483.00,0.0611
482.00,0.0605
481.00,0.0604
480.00,0.0607
479.00,0.0616
478.00,0.0633
477.00,0.0660
476.00,0.0701
475.00,0.0753
474.00,0.0809
473.00,0.0861
472.00,0.0900
471.00,0.0918
470.00,0.0915
469.00,0.0896
468.00,0.0871
467.00,0.0844
466.00,0.0817
465.00,0.0793
464.00,0.0772
463.00,0.0752
462.00,0.0734
461.00,0.0719
460.00,0.0707
459.00,0.0695
458.00,0.0681
457.00,0.0665
456.00,0.0651
455.00,0.0639
454.00,0.0629
453.00,0.0621
452.00,0.0613
451.00,0.0606
450.00,0.0602
449.00,0.0601
448.00,0.0603
447.00,0.0606
446.00,0.0610
445.00,0.0617
444.00,0.0627
443.00,0.0637
442.00,0.0646
441.00,0.0652
440.00,0.0654
439.00,0.0649
438.00,0.0638
437.00,0.0625
436.00,0.0616
435.00,0.0609
434.00,0.0601
433.00,0.0590
432.00,0.0578
431.00,0.0566
430.00,0.0558
429.00,0.0557
428.00,0.0559
427.00,0.0560
426.00,0.0559
425.00,0.0557
424.00,0.0561
423.00,0.0569
422.00,0.0579
421.00,0.0591
420.00,0.0606
419.00,0.0618
418.00,0.0625
417.00,0.0625
416.00,0.0624
415.00,0.0623
414.00,0.0626
413.00,0.0634
412.00,0.0649
411.00,0.0668
410.00,0.0689
409.00,0.0719
408.00,0.0763
407.00,0.0816
406.00,0.0871
405.00,0.0920
404.00,0.0961
403.00,0.0992
402.00,0.1012
401.00,0.1026
400.00,0.1035
